epoch,raw_data_sleepMat,PulseOximeter_results
1473817327008,5502,115
1473817327028,5481,115
1473817327048,5448,115
1473817327068,5350,115
1473817327088,5312,115
1473817327108,5424,115
1473817327128,5561,115
1473817327148,5702,115
1473817327168,5917,115
1473817327188,6150,115
1473817327208,6240,115
1473817327228,6088,115
1473817327248,5984,115
1473817327268,5889,115
1473817327288,5617,115
1473817327308,5186,115
1473817327328,4798,115
1473817327348,4485,115
1473817327368,4277,115
1473817327388,4293,115
1473817327408,4425,115
1473817327428,4667,115
1473817327448,4874,115
1473817327468,5084,115
1473817327488,5422,115
1473817327508,5834,115
1473817327528,6352,115
1473817327548,6877,115
1473817327568,7199,115
1473817327588,7337,115
1473817327608,7324,115
1473817327628,7221,115
1473817327648,7139,115
1473817327668,7098,115
1473817327688,7100,115
1473817327708,7094,115
1473817327728,7111,115
1473817327748,7164,115
1473817327768,7299,115
1473817327788,7614,115
1473817327808,7856,115
1473817327828,7787,115
1473817327848,7492,115
1473817327868,7483,115
1473817327888,7661,115
1473817327908,7757,115
1473817327928,7772,115
1473817327948,7790,115
1473817327968,7874,115
1473817327988,7996,115
1473817328008,8098,116
1473817328028,7998,116
1473817328048,8036,116
1473817328068,8312,116
1473817328088,8260,116
1473817328108,7548,116
1473817328128,6629,116
1473817328148,5885,116
1473817328168,5202,116
1473817328188,4441,116
1473817328208,3789,116
1473817328228,3440,116
1473817328248,3259,116
1473817328268,3167,116
1473817328288,3196,116
1473817328308,3217,116
1473817328328,3184,116
1473817328348,3151,116
1473817328368,3215,116
1473817328388,3386,116
1473817328408,3469,116
1473817328428,3457,116
1473817328448,3604,116
1473817328468,3833,116
1473817328488,4031,116
1473817328508,4121,116
1473817328528,4266,116
1473817328548,4485,116
1473817328568,4683,116
1473817328588,4817,116
1473817328608,4715,116
1473817328628,4366,116
1473817328648,3987,116
1473817328668,3935,116
1473817328688,4130,116
1473817328708,4363,116
1473817328728,4535,116
1473817328748,4588,116
1473817328768,4424,116
1473817328788,4196,116
1473817328808,4142,116
1473817328828,4070,116
1473817328848,3891,116
1473817328868,3817,116
1473817328888,3873,116
1473817328908,3992,116
1473817328928,4069,116
1473817328948,4040,116
1473817328968,3905,116
1473817328988,3816,116
1473817329008,3756,115
1473817329028,3643,115
1473817329048,3494,115
1473817329068,3295,115
1473817329088,3109,115
1473817329108,3016,115
1473817329128,3009,115
1473817329148,2986,115
1473817329168,2968,115
1473817329188,2916,115
1473817329208,2829,115
1473817329228,2767,115
1473817329248,2704,115
1473817329268,2625,115
1473817329288,2534,115
1473817329308,2455,115
1473817329328,2387,115
1473817329348,2307,115
1473817329368,2227,115
1473817329388,2210,115
1473817329408,2227,115
1473817329428,2209,115
1473817329448,2194,115
1473817329468,2190,115
1473817329488,2158,115
1473817329508,2152,115
1473817329528,2170,115
1473817329548,2189,115
1473817329568,2200,115
1473817329588,2144,115
1473817329608,2064,115
1473817329628,2030,115
1473817329648,1975,115
1473817329668,1956,115
1473817329688,1943,115
1473817329708,1903,115
1473817329728,1935,115
1473817329748,1977,115
1473817329768,1976,115
1473817329788,1960,115
1473817329808,1944,115
1473817329828,1904,115
1473817329848,1919,115
1473817329868,1926,115
1473817329888,1941,115
1473817329908,1934,115
1473817329928,1930,115
1473817329948,1918,115
1473817329968,1897,115
1473817329988,1932,115
1473817330008,1908,115
1473817330028,1872,115
1473817330048,1872,115
1473817330068,1913,115
1473817330088,1956,115
1473817330108,1990,115
1473817330128,2044,115
1473817330148,2107,115
1473817330168,2140,115
1473817330188,2174,115
1473817330208,2235,115
1473817330228,2280,115
1473817330248,2294,115
1473817330268,2300,115
1473817330288,2279,115
1473817330308,2216,115
1473817330328,2174,115
1473817330348,2194,115
1473817330368,2172,115
1473817330388,2040,115
1473817330408,1944,115
1473817330428,1990,115
1473817330448,2121,115
1473817330468,2240,115
1473817330488,2297,115
1473817330508,2268,115
1473817330528,2256,115
1473817330548,2308,115
1473817330568,2359,115
1473817330588,2360,115
1473817330608,2252,115
1473817330628,2160,115
1473817330648,2183,115
1473817330668,2293,115
1473817330688,2369,115
1473817330708,2306,115
1473817330728,2318,115
1473817330748,2402,115
1473817330768,2422,115
1473817330788,2390,115
1473817330808,2400,115
1473817330828,2430,115
1473817330848,2375,115
1473817330868,2288,115
1473817330888,2256,115
1473817330908,2239,115
1473817330928,2303,115
1473817330948,2510,115
1473817330968,2636,115
1473817330988,2550,115
1473817331008,2504,114
1473817331028,2585,114
1473817331048,2634,114
1473817331068,2604,114
1473817331088,2587,114
1473817331108,2679,114
1473817331128,2737,114
1473817331148,2705,114
1473817331168,2678,114
1473817331188,2705,114
1473817331208,2728,114
1473817331228,2757,114
1473817331248,2770,114
1473817331268,2734,114
1473817331288,2687,114
1473817331308,2678,114
1473817331328,2724,114
1473817331348,2745,114
1473817331368,2762,114
1473817331388,2868,114
1473817331408,3034,114
1473817331428,3147,114
1473817331448,3261,114
1473817331468,3356,114
1473817331488,3422,114
1473817331508,3526,114
1473817331528,3640,114
1473817331548,3728,114
1473817331568,3858,114
1473817331588,3993,114
1473817331608,4119,114
1473817331628,4244,114
1473817331648,4360,114
1473817331668,4427,114
1473817331688,4458,114
1473817331708,4570,114
1473817331728,4781,114
1473817331748,4952,114
1473817331768,5110,114
1473817331788,5212,114
1473817331808,5248,114
1473817331828,5321,114
1473817331848,5462,114
1473817331868,5672,114
1473817331888,5932,114
1473817331908,6198,114
1473817331928,6426,114
1473817331948,6699,114
1473817331968,7013,114
1473817331988,7225,114
1473817332008,7367,113
1473817332028,7479,113
1473817332048,7496,113
1473817332068,7427,113
1473817332088,7340,113
1473817332108,7273,113
1473817332128,7194,113
1473817332148,7083,113
1473817332168,6991,113
1473817332188,6971,113
1473817332208,6929,113
1473817332228,6892,113
1473817332248,6879,113
1473817332268,6882,113
1473817332288,6830,113
1473817332308,6655,113
1473817332328,6468,113
1473817332348,6315,113
1473817332368,6217,113
1473817332388,6190,113
1473817332408,6168,113
1473817332428,6173,113
1473817332448,6207,113
1473817332468,6244,113
1473817332488,6301,113
1473817332508,6396,113
1473817332528,6504,113
1473817332548,6605,113
1473817332568,6699,113
1473817332588,6790,113
1473817332608,6845,113
1473817332628,6887,113
1473817332648,6895,113
1473817332668,6885,113
1473817332688,6880,113
1473817332708,6915,113
1473817332728,6975,113
1473817332748,7043,113
1473817332768,7098,113
1473817332788,7164,113
1473817332808,7187,113
1473817332828,7122,113
1473817332848,7050,113
1473817332868,7039,113
1473817332888,7024,113
1473817332908,7056,113
1473817332928,7100,113
1473817332948,7144,113
1473817332968,7176,113
1473817332988,7205,113
1473817333008,7224,111
1473817333028,7211,111
1473817333048,7218,111
1473817333068,7256,111
1473817333088,7299,111
1473817333108,7363,111
1473817333128,7406,111
1473817333148,7456,111
1473817333168,7482,111
1473817333188,7451,111
1473817333208,7445,111
1473817333228,7497,111
1473817333248,7555,111
1473817333268,7608,111
1473817333288,7625,111
1473817333308,7611,111
1473817333328,7514,111
1473817333348,7455,111
1473817333368,7436,111
1473817333388,7427,111
1473817333408,7441,111
1473817333428,7472,111
1473817333448,7481,111
1473817333468,7526,111
1473817333488,7570,111
1473817333508,7604,111
1473817333528,7630,111
1473817333548,7658,111
1473817333568,7675,111
1473817333588,7698,111
1473817333608,7760,111
1473817333628,7808,111
1473817333648,7856,111
1473817333668,7900,111
1473817333688,7920,111
1473817333708,7910,111
1473817333728,7903,111
1473817333748,7915,111
1473817333768,8004,111
1473817333788,8098,111
1473817333808,8111,111
1473817333828,8100,111
1473817333848,8063,111
1473817333868,8008,111
1473817333888,7984,111
1473817333908,7982,111
1473817333928,7997,111
1473817333948,8006,111
1473817333968,8022,111
1473817333988,8020,111
1473817334008,8031,110
1473817334028,8072,110
1473817334048,8084,110
1473817334068,8092,110
1473817334088,8086,110
1473817334108,8067,110
1473817334128,8092,110
1473817334148,8106,110
1473817334168,8123,110
1473817334188,8133,110
1473817334208,8112,110
1473817334228,8093,110
1473817334248,8082,110
1473817334268,8095,110
1473817334288,8118,110
1473817334308,8114,110
1473817334328,8088,110
1473817334348,8026,110
1473817334368,7940,110
1473817334388,7867,110
1473817334408,7809,110
1473817334428,7776,110
1473817334448,7756,110
1473817334468,7741,110
1473817334488,7721,110
1473817334508,7704,110
1473817334528,7696,110
1473817334548,7698,110
1473817334568,7693,110
1473817334588,7668,110
1473817334608,7618,110
1473817334628,7596,110
1473817334648,7606,110
1473817334668,7626,110
1473817334688,7634,110
1473817334708,7622,110
1473817334728,7589,110
1473817334748,7545,110
1473817334768,7503,110
1473817334788,7512,110
1473817334808,7548,110
1473817334828,7549,110
1473817334848,7546,110
1473817334868,7503,110
1473817334888,7412,110
1473817334908,7321,110
1473817334928,7268,110
1473817334948,7242,110
1473817334968,7216,110
1473817334988,7184,110
1473817335008,7157,110
1473817335028,7145,110
1473817335048,7155,110
1473817335068,7143,110
1473817335088,7128,110
1473817335108,7102,110
1473817335128,7062,110
1473817335148,7043,110
1473817335168,7058,110
1473817335188,7068,110
1473817335208,7081,110
1473817335228,7075,110
1473817335248,7062,110
1473817335268,7025,110
1473817335288,6996,110
1473817335308,7007,110
1473817335328,7022,110
1473817335348,7033,110
1473817335368,7041,110
1473817335388,7041,110
1473817335408,6992,110
1473817335428,6913,110
1473817335448,6869,110
1473817335468,6842,110
1473817335488,6827,110
1473817335508,6830,110
1473817335528,6829,110
1473817335548,6844,110
1473817335568,6891,110
1473817335588,6932,110
1473817335608,6961,110
1473817335628,6971,110
1473817335648,6965,110
1473817335668,6985,110
1473817335688,7026,110
1473817335708,7075,110
1473817335728,7127,110
1473817335748,7178,110
1473817335768,7223,110
1473817335788,7228,110
1473817335808,7233,110
1473817335828,7272,110
1473817335848,7331,110
1473817335868,7399,110
1473817335888,7430,110
1473817335908,7449,110
1473817335928,7421,110
1473817335948,7363,110
1473817335968,7336,110
1473817335988,7312,110
1473817336008,7309,110
1473817336028,7323,110
1473817336048,7318,110
1473817336068,7340,110
1473817336088,7381,110
1473817336108,7409,110
1473817336128,7437,110
1473817336148,7449,110
1473817336168,7465,110
1473817336188,7486,110
1473817336208,7515,110
1473817336228,7538,110
1473817336248,7566,110
1473817336268,7616,110
1473817336288,7665,110
1473817336308,7673,110
1473817336328,7656,110
1473817336348,7652,110
1473817336368,7682,110
1473817336388,7732,110
1473817336408,7784,110
1473817336428,7804,110
1473817336448,7755,110
1473817336468,7686,110
1473817336488,7633,110
1473817336508,7597,110
1473817336528,7580,110
1473817336548,7586,110
1473817336568,7606,110
1473817336588,7633,110
1473817336608,7659,110
1473817336628,7686,110
1473817336648,7727,110
1473817336668,7749,110
1473817336688,7782,110
1473817336708,7808,110
1473817336728,7851,110
1473817336748,7904,110
1473817336768,7948,110
1473817336788,8005,110
1473817336808,8080,110
1473817336828,8114,110
1473817336848,8120,110
1473817336868,8116,110
1473817336888,8139,110
1473817336908,8188,110
1473817336928,8271,110
1473817336948,8332,110
1473817336968,8313,110
1473817336988,8283,110
1473817337008,8251,109
1473817337028,8232,109
1473817337048,8224,109
1473817337068,8220,109
1473817337088,8245,109
1473817337108,8260,109
1473817337128,8267,109
1473817337148,8273,109
1473817337168,8296,109
1473817337188,8302,109
1473817337208,8288,109
1473817337228,8249,109
1473817337248,8226,109
1473817337268,8205,109
1473817337288,8198,109
1473817337308,8216,109
1473817337328,8224,109
1473817337348,8221,109
1473817337368,8203,109
1473817337388,8168,109
1473817337408,8145,109
1473817337428,8156,109
1473817337448,8197,109
1473817337468,8211,109
1473817337488,8186,109
1473817337508,8141,109
1473817337528,8029,109
1473817337548,7936,109
1473817337568,7892,109
1473817337588,7868,109
1473817337608,7874,109
1473817337628,7846,109
1473817337648,7811,109
1473817337668,7800,109
1473817337688,7790,109
1473817337708,7789,109
1473817337728,7786,109
1473817337748,7773,109
1473817337768,7741,109
1473817337788,7694,109
1473817337808,7683,109
1473817337828,7702,109
1473817337848,7700,109
1473817337868,7688,109
1473817337888,7662,109
1473817337908,7598,109
1473817337928,7540,109
1473817337948,7494,109
1473817337968,7494,109
1473817337988,7491,109
1473817338008,7466,109
1473817338028,7422,109
1473817338048,7336,109
1473817338068,7232,109
1473817338088,7164,109
1473817338108,7129,109
1473817338128,7107,109
1473817338148,7100,109
1473817338168,7084,109
1473817338188,7048,109
1473817338208,7036,109
1473817338228,7040,109
1473817338248,7047,109
1473817338268,7051,109
1473817338288,7026,109
1473817338308,6993,109
1473817338328,6995,109
1473817338348,7005,109
1473817338368,7028,109
1473817338388,7048,109
1473817338408,7054,109
1473817338428,7053,109
1473817338448,7030,109
1473817338468,7019,109
1473817338488,7059,109
1473817338508,7087,109
1473817338528,7108,109
1473817338548,7165,109
1473817338568,7222,109
1473817338588,7290,109
1473817338608,7406,109
1473817338628,7505,109
1473817338648,7553,109
1473817338668,7579,109
1473817338688,7599,109
1473817338708,7579,109
1473817338728,7572,109
1473817338748,7552,109
1473817338768,7506,109
1473817338788,7520,109
1473817338808,7573,109
1473817338828,7700,109
1473817338848,7870,109
1473817338868,8056,109
1473817338888,8217,109
1473817338908,8315,109
1473817338928,8391,109
1473817338948,8492,109
1473817338968,8573,109
1473817338988,8639,109
1473817339008,8663,108
1473817339028,8704,108
1473817339048,8766,108
1473817339068,8818,108
1473817339088,8796,108
1473817339108,8703,108
1473817339128,8602,108
1473817339148,8569,108
1473817339168,8605,108
1473817339188,8685,108
1473817339208,8724,108
1473817339228,8768,108
1473817339248,8872,108
1473817339268,9006,108
1473817339288,9125,108
1473817339308,9188,108
1473817339328,9261,108
1473817339348,9372,108
1473817339368,9521,108
1473817339388,9644,108
1473817339408,9722,108
1473817339428,9778,108
1473817339448,9896,108
1473817339468,9976,108
1473817339488,9926,108
1473817339508,9953,108
1473817339528,10139,108
1473817339548,10406,108
1473817339568,10595,108
1473817339588,10681,108
1473817339608,10783,108
1473817339628,10885,108
1473817339648,10909,108
1473817339668,10872,108
1473817339688,10930,108
1473817339708,11055,108
1473817339728,11098,108
1473817339748,11040,108
1473817339768,10957,108
1473817339788,10910,108
1473817339808,10955,108
1473817339828,11057,108
1473817339848,11076,108
1473817339868,11060,108
1473817339888,11036,108
1473817339908,11002,108
1473817339928,10957,108
1473817339948,10990,108
1473817339968,10977,108
1473817339988,10740,108
1473817340008,10422,109
1473817340028,10149,109
1473817340048,9984,109
1473817340068,9943,109
1473817340088,9935,109
1473817340108,9931,109
1473817340128,9935,109
1473817340148,9884,109
1473817340168,9784,109
1473817340188,9717,109
1473817340208,9654,109
1473817340228,9576,109
1473817340248,9529,109
1473817340268,9539,109
1473817340288,9547,109
1473817340308,9527,109
1473817340328,9436,109
1473817340348,9310,109
1473817340368,9221,109
1473817340388,9162,109
1473817340408,9118,109
1473817340428,9092,109
1473817340448,9060,109
1473817340468,8999,109
1473817340488,8966,109
1473817340508,8888,109
1473817340528,8800,109
1473817340548,8711,109
1473817340568,8674,109
1473817340588,8687,109
1473817340608,8701,109
1473817340628,8701,109
1473817340648,8655,109
1473817340668,8558,109
1473817340688,8465,109
1473817340708,8404,109
1473817340728,8364,109
1473817340748,8264,109
1473817340768,8159,109
1473817340788,8128,109
1473817340808,8152,109
1473817340828,8191,109
1473817340848,8170,109
1473817340868,8116,109
1473817340888,8078,109
1473817340908,8066,109
1473817340928,8099,109
1473817340948,8136,109
1473817340968,8110,109
1473817340988,8136,109
1473817341008,8129,108
1473817341028,8123,108
1473817341048,8147,108
1473817341068,8158,108
1473817341088,8196,108
1473817341108,8284,108
1473817341128,8401,108
1473817341148,8522,108
1473817341168,8616,108
1473817341188,8658,108
1473817341208,8619,108
1473817341228,8580,108
1473817341248,8568,108
1473817341268,8526,108
1473817341288,8512,108
1473817341308,8555,108
1473817341328,8604,108
1473817341348,8603,108
1473817341368,8576,108
1473817341388,8555,108
1473817341408,8552,108
1473817341428,8566,108
1473817341448,8609,108
1473817341468,8652,108
1473817341488,8686,108
1473817341508,8730,108
1473817341528,8804,108
1473817341548,8881,108
1473817341568,8946,108
1473817341588,9026,108
1473817341608,9154,108
1473817341628,9305,108
1473817341648,9417,108
1473817341668,9484,108
1473817341688,9505,108
1473817341708,9498,108
1473817341728,9478,108
1473817341748,9520,108
1473817341768,9480,108
1473817341788,9293,108
1473817341808,9188,108
1473817341828,9160,108
1473817341848,9187,108
1473817341868,9368,108
1473817341888,9590,108
1473817341908,9748,108
1473817341928,9818,108
1473817341948,9837,108
1473817341968,9864,108
1473817341988,9913,108
1473817342008,10048,108
1473817342028,10240,108
1473817342048,10460,108
1473817342068,10605,108
1473817342088,10657,108
1473817342108,10590,108
1473817342128,10448,108
1473817342148,10385,108
1473817342168,10404,108
1473817342188,10368,108
1473817342208,10256,108
1473817342228,10108,108
1473817342248,10006,108
1473817342268,9982,108
1473817342288,9956,108
1473817342308,9938,108
1473817342328,9929,108
1473817342348,9895,108
1473817342368,9876,108
1473817342388,9878,108
1473817342408,9873,108
1473817342428,9883,108
1473817342448,9894,108
1473817342468,9901,108
1473817342488,9922,108
1473817342508,9953,108
1473817342528,9980,108
1473817342548,9944,108
1473817342568,9898,108
1473817342588,9860,108
1473817342608,9803,108
1473817342628,9790,108
1473817342648,9785,108
1473817342668,9776,108
1473817342688,9755,108
1473817342708,9712,108
1473817342728,9632,108
1473817342748,9537,108
1473817342768,9459,108
1473817342788,9396,108
1473817342808,9340,108
1473817342828,9300,108
1473817342848,9251,108
1473817342868,9210,108
1473817342888,9200,108
1473817342908,9198,108
1473817342928,9232,108
1473817342948,9242,108
1473817342968,9185,108
1473817342988,9104,108
1473817343008,9050,109
1473817343028,9053,109
1473817343048,9062,109
1473817343068,9063,109
1473817343088,9044,109
1473817343108,8980,109
1473817343128,8928,109
1473817343148,8932,109
1473817343168,8948,109
1473817343188,8948,109
1473817343208,8914,109
1473817343228,8858,109
1473817343248,8786,109
1473817343268,8723,109
1473817343288,8682,109
1473817343308,8638,109
1473817343328,8585,109
1473817343348,8594,109
1473817343368,8602,109
1473817343388,8607,109
1473817343408,8614,109
1473817343428,8617,109
1473817343448,8627,109
1473817343468,8611,109
1473817343488,8582,109
1473817343508,8575,109
1473817343528,8584,109
1473817343548,8611,109
1473817343568,8617,109
1473817343588,8614,109
1473817343608,8608,109
1473817343628,8572,109
1473817343648,8552,109
1473817343668,8557,109
1473817343688,8592,109
1473817343708,8607,109
1473817343728,8617,109
1473817343748,8596,109
1473817343768,8527,109
1473817343788,8463,109
1473817343808,8423,109
1473817343828,8398,109
1473817343848,8393,109
1473817343868,8399,109
1473817343888,8382,109
1473817343908,8384,109
1473817343928,8394,109
1473817343948,8416,109
1473817343968,8443,109
1473817343988,8456,109
1473817344008,8459,113
1473817344028,8462,113
1473817344048,8482,113
1473817344068,8519,113
1473817344088,8537,113
1473817344108,8545,113
1473817344128,8538,113
1473817344148,8504,113
1473817344168,8523,113
1473817344188,8567,113
1473817344208,8594,113
1473817344228,8592,113
1473817344248,8588,113
1473817344268,8572,113
1473817344288,8522,113
1473817344308,8495,113
1473817344328,8476,113
1473817344348,8444,113
1473817344368,8452,113
1473817344388,8465,113
1473817344408,8476,113
1473817344428,8491,113
1473817344448,8508,113
1473817344468,8546,113
1473817344488,8558,113
1473817344508,8565,113
1473817344528,8592,113
1473817344548,8679,113
1473817344568,8770,113
1473817344588,8844,113
1473817344608,8904,113
1473817344628,8946,113
1473817344648,8958,113
1473817344668,8986,113
1473817344688,9060,113
1473817344708,9144,113
1473817344728,9217,113
1473817344748,9234,113
1473817344768,9243,113
1473817344788,9232,113
1473817344808,9201,113
1473817344828,9196,113
1473817344848,9184,113
1473817344868,9191,113
1473817344888,9219,113
1473817344908,9242,113
1473817344928,9296,113
1473817344948,9341,113
1473817344968,9368,113
1473817344988,9398,113
1473817345008,9408,114
1473817345028,9415,114
1473817345048,9441,114
1473817345068,9501,114
1473817345088,9552,114
1473817345108,9580,114
1473817345128,9612,114
1473817345148,9627,114
1473817345168,9612,114
1473817345188,9627,114
1473817345208,9668,114
1473817345228,9720,114
1473817345248,9761,114
1473817345268,9740,114
1473817345288,9706,114
1473817345308,9656,114
1473817345328,9605,114
1473817345348,9577,114
1473817345368,9551,114
1473817345388,9559,114
1473817345408,9578,114
1473817345428,9608,114
1473817345448,9652,114
1473817345468,9680,114
1473817345488,9704,114
1473817345508,9717,114
1473817345528,9728,114
1473817345548,9762,114
1473817345568,9808,114
1473817345588,9869,114
1473817345608,9929,114
1473817345628,9960,114
1473817345648,9968,114
1473817345668,9938,114
1473817345688,9928,114
1473817345708,9936,114
1473817345728,9978,114
1473817345748,10082,114
1473817345768,10124,114
1473817345788,10090,114
1473817345808,10058,114
1473817345828,10029,114
1473817345848,10008,114
1473817345868,9982,114
1473817345888,9967,114
1473817345908,9958,114
1473817345928,9964,114
1473817345948,9988,114
1473817345968,10014,114
1473817345988,10026,114
1473817346008,10036,114
1473817346028,10034,114
1473817346048,10023,114
1473817346068,10038,114
1473817346088,10044,114
1473817346108,10083,114
1473817346128,10097,114
1473817346148,10113,114
1473817346168,10092,114
1473817346188,10043,114
1473817346208,10045,114
1473817346228,10041,114
1473817346248,10078,114
1473817346268,10110,114
1473817346288,10095,114
1473817346308,10077,114
1473817346328,10011,114
1473817346348,9930,114
1473817346368,9864,114
1473817346388,9812,114
1473817346408,9776,114
1473817346428,9757,114
1473817346448,9737,114
1473817346468,9738,114
1473817346488,9734,114
1473817346508,9739,114
1473817346528,9745,114
1473817346548,9736,114
1473817346568,9721,114
1473817346588,9704,114
1473817346608,9701,114
1473817346628,9726,114
1473817346648,9749,114
1473817346668,9768,114
1473817346688,9747,114
1473817346708,9700,114
1473817346728,9686,114
1473817346748,9701,114
1473817346768,9742,114
1473817346788,9781,114
1473817346808,9773,114
1473817346828,9775,114
1473817346848,9711,114
1473817346868,9616,114
1473817346888,9549,114
1473817346908,9490,114
1473817346928,9461,114
1473817346948,9433,114
1473817346968,9432,114
1473817346988,9413,114
1473817347008,9387,114
1473817347028,9384,114
1473817347048,9370,114
1473817347068,9353,114
1473817347088,9322,114
1473817347108,9281,114
1473817347128,9278,114
1473817347148,9311,114
1473817347168,9374,114
1473817347188,9438,114
1473817347208,9476,114
1473817347228,9476,114
1473817347248,9464,114
1473817347268,9448,114
1473817347288,9476,114
1473817347308,9488,114
1473817347328,9473,114
1473817347348,9462,114
1473817347368,9416,114
1473817347388,9343,114
1473817347408,9252,114
1473817347428,9184,114
1473817347448,9136,114
1473817347468,9105,114
1473817347488,9082,114
1473817347508,9071,114
1473817347528,9088,114
1473817347548,9108,114
1473817347568,9121,114
1473817347588,9125,114
1473817347608,9123,114
1473817347628,9100,114
1473817347648,9120,114
1473817347668,9149,114
1473817347688,9208,114
1473817347708,9260,114
1473817347728,9300,114
1473817347748,9328,114
1473817347768,9314,114
1473817347788,9312,114
1473817347808,9347,114
1473817347828,9418,114
1473817347848,9482,114
1473817347868,9510,114
1473817347888,9513,114
1473817347908,9482,114
1473817347928,9425,114
1473817347948,9416,114
1473817347968,9403,114
1473817347988,9401,114
1473817348008,9418,114
1473817348028,9425,114
1473817348048,9454,114
1473817348068,9465,114
1473817348088,9456,114
1473817348108,9455,114
1473817348128,9485,114
1473817348148,9497,114
1473817348168,9538,114
1473817348188,9586,114
1473817348208,9616,114
1473817348228,9637,114
1473817348248,9670,114
1473817348268,9690,114
1473817348288,9690,114
1473817348308,9663,114
1473817348328,9662,114
1473817348348,9684,114
1473817348368,9717,114
1473817348388,9762,114
1473817348408,9761,114
1473817348428,9722,114
1473817348448,9644,114
1473817348468,9582,114
1473817348488,9561,114
1473817348508,9551,114
1473817348528,9532,114
1473817348548,9546,114
1473817348568,9562,114
1473817348588,9586,114
1473817348608,9632,114
1473817348628,9660,114
1473817348648,9664,114
1473817348668,9694,114
1473817348688,9728,114
1473817348708,9772,114
1473817348728,9820,114
1473817348748,9864,114
1473817348768,9926,114
1473817348788,9970,114
1473817348808,9994,114
1473817348828,10018,114
1473817348848,10026,114
1473817348868,10050,114
1473817348888,10114,114
1473817348908,10197,114
1473817348928,10273,114
1473817348948,10239,114
1473817348968,10176,114
1473817348988,10128,114
1473817349008,10094,115
1473817349028,10072,115
1473817349048,10041,115
1473817349068,10045,115
1473817349088,10081,115
1473817349108,10093,115
1473817349128,10101,115
1473817349148,10111,115
1473817349168,10120,115
1473817349188,10139,115
1473817349208,10139,115
1473817349228,10143,115
1473817349248,10166,115
1473817349268,10194,115
1473817349288,10228,115
1473817349308,10240,115
1473817349328,10252,115
1473817349348,10245,115
1473817349368,10228,115
1473817349388,10216,115
1473817349408,10216,115
1473817349428,10236,115
1473817349448,10284,115
1473817349468,10286,115
1473817349488,10255,115
1473817349508,10190,115
1473817349528,10111,115
1473817349548,10053,115
1473817349568,9989,115
1473817349588,9952,115
1473817349608,9926,115
1473817349628,9887,115
1473817349648,9830,115
1473817349668,9771,115
1473817349688,9745,115
1473817349708,9747,115
1473817349728,9744,115
1473817349748,9730,115
1473817349768,9687,115
1473817349788,9682,115
1473817349808,9699,115
1473817349828,9715,115
1473817349848,9738,115
1473817349868,9746,115
1473817349888,9742,115
1473817349908,9728,115
1473817349928,9703,115
1473817349948,9714,115
1473817349968,9740,115
1473817349988,9771,115
1473817350008,9783,115
1473817350028,9751,115
1473817350048,9697,115
1473817350068,9614,115
1473817350088,9549,115
1473817350108,9528,115
1473817350128,9495,115
1473817350148,9482,115
1473817350168,9466,115
1473817350188,9440,115
1473817350208,9437,115
1473817350228,9440,115
1473817350248,9451,115
1473817350268,9450,115
1473817350288,9418,115
1473817350308,9392,115
1473817350328,9404,115
1473817350348,9434,115
1473817350368,9453,115
1473817350388,9461,115
1473817350408,9454,115
1473817350428,9427,115
1473817350448,9384,115
1473817350468,9338,115
1473817350488,9336,115
1473817350508,9395,115
1473817350528,9433,115
1473817350548,9440,115
1473817350568,9426,115
1473817350588,9384,115
1473817350608,9331,115
1473817350628,9285,115
1473817350648,9244,115
1473817350668,9199,115
1473817350688,9158,115
1473817350708,9124,115
1473817350728,9107,115
1473817350748,9099,115
1473817350768,9103,115
1473817350788,9121,115
1473817350808,9132,115
1473817350828,9126,115
1473817350848,9097,115
1473817350868,9084,115
1473817350888,9105,115
1473817350908,9128,115
1473817350928,9154,115
1473817350948,9170,115
1473817350968,9168,115
1473817350988,9156,115
1473817351008,9132,115
1473817351028,9120,115
1473817351048,9138,115
1473817351068,9170,115
1473817351088,9201,115
1473817351108,9208,115
1473817351128,9195,115
1473817351148,9148,115
1473817351168,9089,115
1473817351188,9039,115
1473817351208,9001,115
1473817351228,8994,115
1473817351248,8977,115
1473817351268,8972,115
1473817351288,8952,115
1473817351308,8931,115
1473817351328,8954,115
1473817351348,8967,115
1473817351368,8962,115
1473817351388,8948,115
1473817351408,8922,115
1473817351428,8924,115
1473817351448,8958,115
1473817351468,8981,115
1473817351488,9006,115
1473817351508,9005,115
1473817351528,9009,115
1473817351548,8997,115
1473817351568,8972,115
1473817351588,8984,115
1473817351608,9026,115
1473817351628,9080,115
1473817351648,9100,115
1473817351668,9093,115
1473817351688,9072,115
1473817351708,9017,115
1473817351728,8963,115
1473817351748,8943,115
1473817351768,8922,115
1473817351788,8910,115
1473817351808,8903,115
1473817351828,8891,115
1473817351848,8895,115
1473817351868,8898,115
1473817351888,8913,115
1473817351908,8926,115
1473817351928,8909,115
1473817351948,8893,115
1473817351968,8900,115
1473817351988,8928,115
1473817352008,8957,115
1473817352028,8972,115
1473817352048,8992,115
1473817352068,8996,115
1473817352088,8986,115
1473817352108,8956,115
1473817352128,8931,115
1473817352148,8963,115
1473817352168,9006,115
1473817352188,9038,115
1473817352208,9043,115
1473817352228,9010,115
1473817352248,8973,115
1473817352268,8933,115
1473817352288,8912,115
1473817352308,8907,115
1473817352328,8904,115
1473817352348,8908,115
1473817352368,8923,115
1473817352388,8933,115
1473817352408,8965,115
1473817352428,8999,115
1473817352448,9033,115
1473817352468,9045,115
1473817352488,9048,115
1473817352508,9076,115
1473817352528,9125,115
1473817352548,9192,115
1473817352568,9255,115
1473817352588,9288,115
1473817352608,9319,115
1473817352628,9328,115
1473817352648,9318,115
1473817352668,9334,115
1473817352688,9378,115
1473817352708,9440,115
1473817352728,9491,115
1473817352748,9492,115
1473817352768,9477,115
1473817352788,9436,115
1473817352808,9396,115
1473817352828,9379,115
1473817352848,9353,115
1473817352868,9364,115
1473817352888,9376,115
1473817352908,9390,115
1473817352928,9428,115
1473817352948,9460,115
1473817352968,9493,115
1473817352988,9511,115
1473817353008,9519,117
1473817353028,9539,117
1473817353048,9573,117
1473817353068,9642,117
1473817353088,9696,117
1473817353108,9741,117
1473817353128,9777,117
1473817353148,9788,117
1473817353168,9800,117
1473817353188,9810,117
1473817353208,9821,117
1473817353228,9874,117
1473817353248,9936,117
1473817353268,9977,117
1473817353288,9958,117
1473817353308,9905,117
1473817353328,9854,117
1473817353348,9816,117
1473817353368,9796,117
1473817353388,9782,117
1473817353408,9772,117
1473817353428,9792,117
1473817353448,9825,117
1473817353468,9860,117
1473817353488,9890,117
1473817353508,9911,117
1473817353528,9924,117
1473817353548,9953,117
1473817353568,9980,117
1473817353588,10019,117
1473817353608,10076,117
1473817353628,10124,117
1473817353648,10173,117
1473817353668,10192,117
1473817353688,10208,117
1473817353708,10190,117
1473817353728,10183,117
1473817353748,10181,117
1473817353768,10226,117
1473817353788,10304,117
1473817353808,10310,117
1473817353828,10254,117
1473817353848,10195,117
1473817353868,10141,117
1473817353888,10121,117
1473817353908,10087,117
1473817353928,10054,117
1473817353948,10058,117
1473817353968,10074,117
1473817353988,10091,117
1473817354008,10116,114
1473817354028,10137,114
1473817354048,10144,114
1473817354068,10138,114
1473817354088,10144,114
1473817354108,10153,114
1473817354128,10168,114
1473817354148,10202,114
1473817354168,10221,114
1473817354188,10236,114
1473817354208,10234,114
1473817354228,10207,114
1473817354248,10184,114
1473817354268,10190,114
1473817354288,10226,114
1473817354308,10288,114
1473817354328,10297,114
1473817354348,10269,114
1473817354368,10208,114
1473817354388,10127,114
1473817354408,10084,114
1473817354428,10029,114
1473817354448,9998,114
1473817354468,9983,114
1473817354488,9964,114
1473817354508,9956,114
1473817354528,9949,114
1473817354548,9944,114
1473817354568,9941,114
1473817354588,9930,114
1473817354608,9919,114
1473817354628,9895,114
1473817354648,9881,114
1473817354668,9891,114
1473817354688,9915,114
1473817354708,9945,114
1473817354728,9963,114
1473817354748,9944,114
1473817354768,9892,114
1473817354788,9834,114
1473817354808,9845,114
1473817354828,9889,114
1473817354848,9927,114
1473817354868,9919,114
1473817354888,9908,114
1473817354908,9835,114
1473817354928,9760,114
1473817354948,9718,114
1473817354968,9677,114
1473817354988,9644,114
1473817355008,9650,113
1473817355028,9659,113
1473817355048,9645,113
1473817355068,9648,113
1473817355088,9641,113
1473817355108,9642,113
1473817355128,9639,113
1473817355148,9599,113
1473817355168,9588,113
1473817355188,9589,113
1473817355208,9620,113
1473817355228,9648,113
1473817355248,9652,113
1473817355268,9642,113
1473817355288,9635,113
1473817355308,9603,113
1473817355328,9602,113
1473817355348,9627,113
1473817355368,9672,113
1473817355388,9689,113
1473817355408,9685,113
1473817355428,9664,113
1473817355448,9613,113
1473817355468,9560,113
1473817355488,9513,113
1473817355508,9468,113
1473817355528,9446,113
1473817355548,9431,113
1473817355568,9416,113
1473817355588,9419,113
1473817355608,9423,113
1473817355628,9431,113
1473817355648,9440,113
1473817355668,9430,113
1473817355688,9397,113
1473817355708,9365,113
1473817355728,9388,113
1473817355748,9418,113
1473817355768,9432,113
1473817355788,9453,113
1473817355808,9456,113
1473817355828,9445,113
1473817355848,9426,113
1473817355868,9402,113
1473817355888,9414,113
1473817355908,9455,113
1473817355928,9479,113
1473817355948,9490,113
1473817355968,9480,113
1473817355988,9440,113
1473817356008,9373,113
1473817356028,9329,113
1473817356048,9302,113
1473817356068,9274,113
1473817356088,9252,113
1473817356108,9240,113
1473817356128,9251,113
1473817356148,9282,113
1473817356168,9290,113
1473817356188,9312,113
1473817356208,9326,113
1473817356228,9311,113
1473817356248,9324,113
1473817356268,9347,113
1473817356288,9404,113
1473817356308,9447,113
1473817356328,9486,113
1473817356348,9521,113
1473817356368,9543,113
1473817356388,9550,113
1473817356408,9544,113
1473817356428,9549,113
1473817356448,9598,113
1473817356468,9656,113
1473817356488,9697,113
1473817356508,9707,113
1473817356528,9666,113
1473817356548,9625,113
1473817356568,9587,113
1473817356588,9558,113
1473817356608,9528,113
1473817356628,9510,113
1473817356648,9520,113
1473817356668,9518,113
1473817356688,9536,113
1473817356708,9567,113
1473817356728,9561,113
1473817356748,9606,113
1473817356768,9612,113
1473817356788,9608,113
1473817356808,9640,113
1473817356828,9672,113
1473817356848,9705,113
1473817356868,9738,113
1473817356888,9749,113
1473817356908,9772,113
1473817356928,9797,113
1473817356948,9784,113
1473817356968,9785,113
1473817356988,9808,113
1473817357008,9853,113
1473817357028,9915,113
1473817357048,9952,113
1473817357068,9920,113
1473817357088,9856,113
1473817357108,9808,113
1473817357128,9774,113
1473817357148,9730,113
1473817357168,9714,113
1473817357188,9713,113
1473817357208,9724,113
1473817357228,9736,113
1473817357248,9738,113
1473817357268,9760,113
1473817357288,9790,113
1473817357308,9816,113
1473817357328,9832,113
1473817357348,9846,113
1473817357368,9867,113
1473817357388,9922,113
1473817357408,9968,113
1473817357428,10012,113
1473817357448,10044,113
1473817357468,10101,113
1473817357488,10113,113
1473817357508,10107,113
1473817357528,10116,113
1473817357548,10128,113
1473817357568,10176,113
1473817357588,10264,113
1473817357608,10274,113
1473817357628,10224,113
1473817357648,10162,113
1473817357668,10130,113
1473817357688,10124,113
1473817357708,10105,113
1473817357728,10112,113
1473817357748,10124,113
1473817357768,10143,113
1473817357788,10164,113
1473817357808,10178,113
1473817357828,10193,113
1473817357848,10214,113
1473817357868,10235,113
1473817357888,10265,113
1473817357908,10282,113
1473817357928,10322,113
1473817357948,10355,113
1473817357968,10366,113
1473817357988,10396,113
1473817358008,10426,112
1473817358028,10468,112
1473817358048,10456,112
1473817358068,10437,112
1473817358088,10452,112
1473817358108,10474,112
1473817358128,10531,112
1473817358148,10569,112
1473817358168,10532,112
1473817358188,10464,112
1473817358208,10390,112
1473817358228,10337,112
1473817358248,10304,112
1473817358268,10254,112
1473817358288,10227,112
1473817358308,10223,112
1473817358328,10225,112
1473817358348,10229,112
1473817358368,10224,112
1473817358388,10227,112
1473817358408,10240,112
1473817358428,10233,112
1473817358448,10230,112
1473817358468,10227,112
1473817358488,10238,112
1473817358508,10264,112
1473817358528,10274,112
1473817358548,10274,112
1473817358568,10270,112
1473817358588,10249,112
1473817358608,10226,112
1473817358628,10183,112
1473817358648,10170,112
1473817358668,10190,112
1473817358688,10209,112
1473817358708,10226,112
1473817358728,10205,112
1473817358748,10154,112
1473817358768,10075,112
1473817358788,9986,112
1473817358808,9962,112
1473817358828,9916,112
1473817358848,9888,112
1473817358868,9868,112
1473817358888,9823,112
1473817358908,9802,112
1473817358928,9800,112
1473817358948,9798,112
1473817358968,9805,112
1473817358988,9789,112
1473817359008,9757,111
1473817359028,9749,111
1473817359048,9756,111
1473817359068,9773,111
1473817359088,9781,111
1473817359108,9806,111
1473817359128,9816,111
1473817359148,9803,111
1473817359168,9777,111
1473817359188,9733,111
1473817359208,9734,111
1473817359228,9754,111
1473817359248,9787,111
1473817359268,9808,111
1473817359288,9791,111
1473817359308,9773,111
1473817359328,9722,111
1473817359348,9662,111
1473817359368,9616,111
1473817359388,9571,111
1473817359408,9540,111
1473817359428,9528,111
1473817359448,9506,111
1473817359468,9494,111
1473817359488,9482,111
1473817359508,9480,111
1473817359528,9499,111
1473817359548,9491,111
1473817359568,9461,111
1473817359588,9446,111
1473817359608,9456,111
1473817359628,9483,111
1473817359648,9492,111
1473817359668,9497,111
1473817359688,9493,111
1473817359708,9488,111
1473817359728,9486,111
1473817359748,9447,111
1473817359768,9424,111
1473817359788,9441,111
1473817359808,9470,111
1473817359828,9492,111
1473817359848,9479,111
1473817359868,9452,111
1473817359888,9395,111
1473817359908,9321,111
1473817359928,9287,111
1473817359948,9251,111
1473817359968,9234,111
1473817359988,9214,111
1473817360008,9189,111
1473817360028,9172,111
1473817360048,9174,111
1473817360068,9194,111
1473817360088,9225,111
1473817360108,9219,111
1473817360128,9194,111
1473817360148,9161,111
1473817360168,9169,111
1473817360188,9200,111
1473817360208,9213,111
1473817360228,9221,111
1473817360248,9237,111
1473817360268,9240,111
1473817360288,9216,111
1473817360308,9188,111
1473817360328,9198,111
1473817360348,9218,111
1473817360368,9255,111
1473817360388,9298,111
1473817360408,9312,111
1473817360428,9323,111
1473817360448,9296,111
1473817360468,9239,111
1473817360488,9212,111
1473817360508,9182,111
1473817360528,9157,111
1473817360548,9165,111
1473817360568,9166,111
1473817360588,9176,111
1473817360608,9183,111
1473817360628,9208,111
1473817360648,9243,111
1473817360668,9246,111
1473817360688,9218,111
1473817360708,9264,111
1473817360728,9294,111
1473817360748,9345,111
1473817360768,9403,111
1473817360788,9429,111
1473817360808,9450,111
1473817360828,9457,111
1473817360848,9487,111
1473817360868,9487,111
1473817360888,9482,111
1473817360908,9491,111
1473817360928,9541,111
1473817360948,9622,111
1473817360968,9637,111
1473817360988,9612,111
1473817361008,9552,113
1473817361028,9504,113
1473817361048,9483,113
1473817361068,9456,113
1473817361088,9432,113
1473817361108,9436,113
1473817361128,9439,113
1473817361148,9456,113
1473817361168,9474,113
1473817361188,9482,113
1473817361208,9493,113
1473817361228,9529,113
1473817361248,9536,113
1473817361268,9573,113
1473817361288,9615,113
1473817361308,9649,113
1473817361328,9692,113
1473817361348,9700,113
1473817361368,9733,113
1473817361388,9798,113
1473817361408,9801,113
1473817361428,9761,113
1473817361448,9788,113
1473817361468,9838,113
1473817361488,9894,113
1473817361508,9929,113
1473817361528,9908,113
1473817361548,9871,113
1473817361568,9854,113
1473817361588,9810,113
1473817361608,9794,113
1473817361628,9784,113
1473817361648,9783,113
1473817361668,9800,113
1473817361688,9831,113
1473817361708,9866,113
1473817361728,9899,113
1473817361748,9932,113
1473817361768,9967,113
1473817361788,10010,113
1473817361808,10040,113
1473817361828,10089,113
1473817361848,10136,113
1473817361868,10186,113
1473817361888,10247,113
1473817361908,10286,113
1473817361928,10333,113
1473817361948,10362,113
1473817361968,10369,113
1473817361988,10376,113
1473817362008,10367,113
1473817362028,10410,113
1473817362048,10502,113
1473817362068,10529,113
1473817362088,10495,113
1473817362108,10460,113
1473817362128,10446,113
1473817362148,10445,113
1473817362168,10428,113
1473817362188,10430,113
1473817362208,10433,113
1473817362228,10442,113
1473817362248,10461,113
1473817362268,10472,113
1473817362288,10503,113
1473817362308,10511,113
1473817362328,10512,113
1473817362348,10512,113
1473817362368,10497,113
1473817362388,10496,113
1473817362408,10513,113
1473817362428,10530,113
1473817362448,10548,113
1473817362468,10562,113
1473817362488,10546,113
1473817362508,10525,113
1473817362528,10481,113
1473817362548,10482,113
1473817362568,10506,113
1473817362588,10538,113
1473817362608,10547,113
1473817362628,10498,113
1473817362648,10400,113
1473817362668,10348,113
1473817362688,10293,113
1473817362708,10250,113
1473817362728,10225,113
1473817362748,10207,113
1473817362768,10190,113
1473817362788,10165,113
1473817362808,10152,113
1473817362828,10139,113
1473817362848,10142,113
1473817362868,10146,113
1473817362888,10120,113
1473817362908,10098,113
1473817362928,10079,113
1473817362948,10084,113
1473817362968,10090,113
1473817362988,10082,113
1473817363008,10085,113
1473817363028,10072,113
1473817363048,10043,113
1473817363068,10005,113
1473817363088,9997,113
1473817363108,10024,113
1473817363128,10072,113
1473817363148,10078,113
1473817363168,10044,113
1473817363188,9964,113
1473817363208,9890,113
1473817363228,9854,113
1473817363248,9822,113
1473817363268,9771,113
1473817363288,9725,113
1473817363308,9730,113
1473817363328,9726,113
1473817363348,9723,113
1473817363368,9736,113
1473817363388,9739,113
1473817363408,9750,113
1473817363428,9730,113
1473817363448,9713,113
1473817363468,9707,113
1473817363488,9743,113
1473817363508,9784,113
1473817363528,9754,113
1473817363548,9754,113
1473817363568,9751,113
1473817363588,9720,113
1473817363608,9676,113
1473817363628,9664,113
1473817363648,9671,113
1473817363668,9723,113
1473817363688,9739,113
1473817363708,9710,113
1473817363728,9666,113
1473817363748,9588,113
1473817363768,9537,113
1473817363788,9513,113
1473817363808,9486,113
1473817363828,9476,113
1473817363848,9470,113
1473817363868,9464,113
1473817363888,9459,113
1473817363908,9458,113
1473817363928,9479,113
1473817363948,9477,113
1473817363968,9444,113
1473817363988,9397,113
1473817364008,9372,113
1473817364028,9423,113
1473817364048,9482,113
1473817364068,9476,113
1473817364088,9471,113
1473817364108,9501,113
1473817364128,9539,113
1473817364148,9544,113
1473817364168,9549,113
1473817364188,9614,113
1473817364208,9672,113
1473817364228,9698,113
1473817364248,9692,113
1473817364268,9663,113
1473817364288,9608,113
1473817364308,9579,113
1473817364328,9590,113
1473817364348,9591,113
1473817364368,9578,113
1473817364388,9576,113
1473817364408,9570,113
1473817364428,9567,113
1473817364448,9582,113
1473817364468,9610,113
1473817364488,9629,113
1473817364508,9631,113
1473817364528,9620,113
1473817364548,9630,113
1473817364568,9641,113
1473817364588,9672,113
1473817364608,9694,113
1473817364628,9698,113
1473817364648,9684,113
1473817364668,9654,113
1473817364688,9590,113
1473817364708,9557,113
1473817364728,9555,113
1473817364748,9541,113
1473817364768,9514,113
1473817364788,9478,113
1473817364808,9425,113
1473817364828,9351,113
1473817364848,9316,113
1473817364868,9289,113
1473817364888,9256,113
1473817364908,9258,113
1473817364928,9256,113
1473817364948,9274,113
1473817364968,9275,113
1473817364988,9244,113
1473817365008,9249,113
1473817365028,9288,113
1473817365048,9268,113
1473817365068,9248,113
1473817365088,9247,113
1473817365108,9272,113
1473817365128,9293,113
1473817365148,9314,113
1473817365168,9326,113
1473817365188,9298,113
1473817365208,9264,113
1473817365228,9260,113
1473817365248,9277,113
1473817365268,9297,113
1473817365288,9301,113
1473817365308,9285,113
1473817365328,9245,113
1473817365348,9186,113
1473817365368,9117,113
1473817365388,9088,113
1473817365408,9058,113
1473817365428,9039,113
1473817365448,9019,113
1473817365468,8978,113
1473817365488,8988,113
1473817365508,9003,113
1473817365528,8985,113
1473817365548,8960,113
1473817365568,8954,113
1473817365588,8927,113
1473817365608,8921,113
1473817365628,8938,113
1473817365648,8948,113
1473817365668,8977,113
1473817365688,8974,113
1473817365708,8956,113
1473817365728,8929,113
1473817365748,8897,113
1473817365768,8912,113
1473817365788,8958,113
1473817365808,8980,113
1473817365828,8985,113
1473817365848,8988,113
1473817365868,8972,113
1473817365888,8932,113
1473817365908,8903,113
1473817365928,8876,113
1473817365948,8844,113
1473817365968,8842,113
1473817365988,8824,113
1473817366008,8812,114
1473817366028,8807,114
1473817366048,8805,114
1473817366068,8819,114
1473817366088,8836,114
1473817366108,8816,114
1473817366128,8822,114
1473817366148,8842,114
1473817366168,8884,114
1473817366188,8923,114
1473817366208,8959,114
1473817366228,8961,114
1473817366248,8948,114
1473817366268,8912,114
1473817366288,8901,114
1473817366308,8916,114
1473817366328,8960,114
1473817366348,8988,114
1473817366368,9008,114
1473817366388,8976,114
1473817366408,8932,114
1473817366428,8899,114
1473817366448,8878,114
1473817366468,8860,114
1473817366488,8878,114
1473817366508,8906,114
1473817366528,8926,114
1473817366548,8944,114
1473817366568,8949,114
1473817366588,8974,114
1473817366608,9001,114
1473817366628,9018,114
1473817366648,9013,114
1473817366668,9032,114
1473817366688,9082,114
1473817366708,9133,114
1473817366728,9174,114
1473817366748,9199,114
1473817366768,9215,114
1473817366788,9208,114
1473817366808,9234,114
1473817366828,9294,114
1473817366848,9318,114
1473817366868,9354,114
1473817366888,9378,114
1473817366908,9366,114
1473817366928,9315,114
1473817366948,9243,114
1473817366968,9218,114
1473817366988,9196,114
1473817367008,9188,114
1473817367028,9178,114
1473817367048,9193,114
1473817367068,9207,114
1473817367088,9221,114
1473817367108,9201,114
1473817367128,9256,114
1473817367148,9263,114
1473817367168,9238,114
1473817367188,9273,114
1473817367208,9317,114
1473817367228,9293,114
1473817367248,9341,114
1473817367268,9358,114
1473817367288,9369,114
1473817367308,9396,114
1473817367328,9398,114
1473817367348,9396,114
1473817367368,9412,114
1473817367388,9450,114
1473817367408,9510,114
1473817367428,9512,114
1473817367448,9473,114
1473817367468,9456,114
1473817367488,9427,114
1473817367508,9406,114
1473817367528,9365,114
1473817367548,9367,114
1473817367568,9400,114
1473817367588,9423,114
1473817367608,9455,114
1473817367628,9485,114
1473817367648,9522,114
1473817367668,9550,114
1473817367688,9576,114
1473817367708,9618,114
1473817367728,9661,114
1473817367748,9691,114
1473817367768,9739,114
1473817367788,9801,114
1473817367808,9854,114
1473817367828,9896,114
1473817367848,9926,114
1473817367868,9976,114
1473817367888,10005,114
1473817367908,10027,114
1473817367928,10127,114
1473817367948,10188,114
1473817367968,10183,114
1473817367988,10143,114
1473817368008,10116,116
1473817368028,10115,116
1473817368048,10104,116
1473817368068,10097,116
1473817368088,10127,116
1473817368108,10169,116
1473817368128,10224,116
1473817368148,10266,116
1473817368168,10312,116
1473817368188,10385,116
1473817368208,10428,116
1473817368228,10477,116
1473817368248,10518,116
1473817368268,10568,116
1473817368288,10642,116
1473817368308,10708,116
1473817368328,10769,116
1473817368348,10786,116
1473817368368,10765,116
1473817368388,10720,116
1473817368408,10682,116
1473817368428,10686,116
1473817368448,10724,116
1473817368468,10774,116
1473817368488,10786,116
1473817368508,10741,116
1473817368528,10646,116
1473817368548,10548,116
1473817368568,10489,116
1473817368588,10445,116
1473817368608,10424,116
1473817368628,10415,116
1473817368648,10386,116
1473817368668,10344,116
1473817368688,10321,116
1473817368708,10316,116
1473817368728,10317,116
1473817368748,10308,116
1473817368768,10268,116
1473817368788,10224,116
1473817368808,10193,116
1473817368828,10191,116
1473817368848,10212,116
1473817368868,10220,116
1473817368888,10196,116
1473817368908,10164,116
1473817368928,10114,116
1473817368948,10088,116
1473817368968,10088,116
1473817368988,10110,116
1473817369008,10110,117
1473817369028,10087,117
1473817369048,10046,117
1473817369068,9969,117
1473817369088,9898,117
1473817369108,9856,117
1473817369128,9840,117
1473817369148,9841,117
1473817369168,9833,117
1473817369188,9815,117
1473817369208,9796,117
1473817369228,9776,117
1473817369248,9794,117
1473817369268,9797,117
1473817369288,9792,117
1473817369308,9776,117
1473817369328,9746,117
1473817369348,9770,117
1473817369368,9795,117
1473817369388,9818,117
1473817369408,9832,117
1473817369428,9824,117
1473817369448,9819,117
1473817369468,9793,117
1473817369488,9781,117
1473817369508,9806,117
1473817369528,9838,117
1473817369548,9839,117
1473817369568,9834,117
1473817369588,9794,117
1473817369608,9717,117
1473817369628,9659,117
1473817369648,9625,117
1473817369668,9605,117
1473817369688,9589,117
1473817369708,9568,117
1473817369728,9538,117
1473817369748,9526,117
1473817369768,9534,117
1473817369788,9532,117
1473817369808,9534,117
1473817369828,9519,117
1473817369848,9486,117
1473817369868,9485,117
1473817369888,9499,117
1473817369908,9529,117
1473817369928,9552,117
1473817369948,9552,117
1473817369968,9554,117
1473817369988,9532,117
1473817370008,9499,117
1473817370028,9499,117
1473817370048,9536,117
1473817370068,9580,117
1473817370088,9573,117
1473817370108,9552,117
1473817370128,9504,117
1473817370148,9431,117
1473817370168,9387,117
1473817370188,9360,117
1473817370208,9325,117
1473817370228,9306,117
1473817370248,9274,117
1473817370268,9252,117
1473817370288,9240,117
1473817370308,9241,117
1473817370328,9247,117
1473817370348,9262,117
1473817370368,9270,117
1473817370388,9269,117
1473817370408,9256,117
1473817370428,9274,117
1473817370448,9286,117
1473817370468,9309,117
1473817370488,9303,117
1473817370508,9287,117
1473817370528,9272,117
1473817370548,9250,117
1473817370568,9231,117
1473817370588,9256,117
1473817370608,9298,117
1473817370628,9302,117
1473817370648,9278,117
1473817370668,9241,117
1473817370688,9194,117
1473817370708,9141,117
1473817370728,9120,117
1473817370748,9109,117
1473817370768,9091,117
1473817370788,9112,117
1473817370808,9118,117
1473817370828,9149,117
1473817370848,9185,117
1473817370868,9208,117
1473817370888,9218,117
1473817370908,9232,117
1473817370928,9266,117
1473817370948,9312,117
1473817370968,9346,117
1473817370988,9379,117
1473817371008,9418,117
1473817371028,9438,117
1473817371048,9447,117
1473817371068,9448,117
1473817371088,9460,117
1473817371108,9483,117
1473817371128,9520,117
1473817371148,9575,117
1473817371168,9609,117
1473817371188,9571,117
1473817371208,9517,117
1473817371228,9493,117
1473817371248,9483,117
1473817371268,9452,117
1473817371288,9440,117
1473817371308,9447,117
1473817371328,9459,117
1473817371348,9499,117
1473817371368,9530,117
1473817371388,9549,117
1473817371408,9589,117
1473817371428,9618,117
1473817371448,9651,117
1473817371468,9677,117
1473817371488,9718,117
1473817371508,9767,117
1473817371528,9819,117
1473817371548,9857,117
1473817371568,9893,117
1473817371588,9908,117
1473817371608,9948,117
1473817371628,9961,117
1473817371648,9982,117
1473817371668,10001,117
1473817371688,10084,117
1473817371708,10167,117
1473817371728,10146,117
1473817371748,10108,117
1473817371768,10086,117
1473817371788,10054,117
1473817371808,10055,117
1473817371828,10072,117
1473817371848,10075,117
1473817371868,10091,117
1473817371888,10092,117
1473817371908,10116,117
1473817371928,10149,117
1473817371948,10178,117
1473817371968,10196,117
1473817371988,10215,117
1473817372008,10244,116
1473817372028,10290,116
1473817372048,10342,116
1473817372068,10410,116
1473817372088,10464,116
1473817372108,10497,116
1473817372128,10504,116
1473817372148,10500,116
1473817372168,10498,116
1473817372188,10509,116
1473817372208,10528,116
1473817372228,10587,116
1473817372248,10618,116
1473817372268,10596,116
1473817372288,10546,116
1473817372308,10478,116
1473817372328,10444,116
1473817372348,10398,116
1473817372368,10365,116
1473817372388,10354,116
1473817372408,10341,116
1473817372428,10330,116
1473817372448,10316,116
1473817372468,10311,116
1473817372488,10324,116
1473817372508,10332,116
1473817372528,10325,116
1473817372548,10314,116
1473817372568,10300,116
1473817372588,10308,116
1473817372608,10312,116
1473817372628,10341,116
1473817372648,10345,116
1473817372668,10333,116
1473817372688,10304,116
1473817372708,10273,116
1473817372728,10282,116
1473817372748,10291,116
1473817372768,10326,116
1473817372788,10336,116
1473817372808,10318,116
1473817372828,10282,116
1473817372848,10205,116
1473817372868,10147,116
1473817372888,10109,116
1473817372908,10056,116
1473817372928,10042,116
1473817372948,10031,116
1473817372968,10009,116
1473817372988,10001,116
1473817373008,9989,116
1473817373028,9994,116
1473817373048,10005,116
1473817373068,9998,116
1473817373088,9962,116
1473817373108,9943,116
1473817373128,9940,116
1473817373148,9956,116
1473817373168,9971,116
1473817373188,9982,116
1473817373208,9969,116
1473817373228,9942,116
1473817373248,9918,116
1473817373268,9890,116
1473817373288,9904,116
1473817373308,9919,116
1473817373328,9924,116
1473817373348,9920,116
1473817373368,9896,116
1473817373388,9834,116
1473817373408,9764,116
1473817373428,9706,116
1473817373448,9672,116
1473817373468,9648,116
1473817373488,9634,116
1473817373508,9618,116
1473817373528,9586,116
1473817373548,9591,116
1473817373568,9608,116
1473817373588,9612,116
1473817373608,9606,116
1473817373628,9576,116
1473817373648,9557,116
1473817373668,9566,116
1473817373688,9581,116
1473817373708,9602,116
1473817373728,9604,116
1473817373748,9609,116
1473817373768,9604,116
1473817373788,9585,116
1473817373808,9556,116
1473817373828,9518,116
1473817373848,9564,116
1473817373868,9634,116
1473817373888,9633,116
1473817373908,9626,116
1473817373928,9594,116
1473817373948,9499,116
1473817373968,9475,116
1473817373988,9453,116
1473817374008,9418,116
1473817374028,9407,116
1473817374048,9384,116
1473817374068,9359,116
1473817374088,9314,116
1473817374108,9355,116
1473817374128,9353,116
1473817374148,9341,116
1473817374168,9342,116
1473817374188,9318,116
1473817374208,9304,116
1473817374228,9320,116
1473817374248,9314,116
1473817374268,9366,116
1473817374288,9400,116
1473817374308,9394,116
1473817374328,9376,116
1473817374348,9330,116
1473817374368,9299,116
1473817374388,9310,116
1473817374408,9330,116
1473817374428,9348,116
1473817374448,9322,116
1473817374468,9299,116
1473817374488,9258,116
1473817374508,9202,116
1473817374528,9160,116
1473817374548,9120,116
1473817374568,9097,116
1473817374588,9094,116
1473817374608,9080,116
1473817374628,9066,116
1473817374648,9048,116
1473817374668,9047,116
1473817374688,9068,116
1473817374708,9062,116
1473817374728,9052,116
1473817374748,9025,116
1473817374768,9032,116
1473817374788,9060,116
1473817374808,9088,116
1473817374828,9123,116
1473817374848,9140,116
1473817374868,9130,116
1473817374888,9136,116
1473817374908,9114,116
1473817374928,9097,116
1473817374948,9125,116
1473817374968,9166,116
1473817374988,9194,116
1473817375008,9192,115
1473817375028,9196,115
1473817375048,9177,115
1473817375068,9131,115
1473817375088,9106,115
1473817375108,9078,115
1473817375128,9056,115
1473817375148,9039,115
1473817375168,9016,115
1473817375188,9022,115
1473817375208,9036,115
1473817375228,9048,115
1473817375248,9065,115
1473817375268,9063,115
1473817375288,9048,115
1473817375308,9052,115
1473817375328,9081,115
1473817375348,9115,115
1473817375368,9147,115
1473817375388,9182,115
1473817375408,9195,115
1473817375428,9199,115
1473817375448,9182,115
1473817375468,9151,115
1473817375488,9151,115
1473817375508,9200,115
1473817375528,9240,115
1473817375548,9264,115
1473817375568,9247,115
1473817375588,9221,115
1473817375608,9184,115
1473817375628,9147,115
1473817375648,9130,115
1473817375668,9110,115
1473817375688,9088,115
1473817375708,9086,115
1473817375728,9091,115
1473817375748,9117,115
1473817375768,9152,115
1473817375788,9170,115
1473817375808,9187,115
1473817375828,9178,115
1473817375848,9200,115
1473817375868,9232,115
1473817375888,9281,115
1473817375908,9341,115
1473817375928,9374,115
1473817375948,9394,115
1473817375968,9414,115
1473817375988,9436,115
1473817376008,9444,114
1473817376028,9456,114
1473817376048,9488,114
1473817376068,9540,114
1473817376088,9594,114
1473817376108,9618,114
1473817376128,9580,114
1473817376148,9525,114
1473817376168,9498,114
1473817376188,9471,114
1473817376208,9444,114
1473817376228,9441,114
1473817376248,9452,114
1473817376268,9468,114
1473817376288,9480,114
1473817376308,9508,114
1473817376328,9542,114
1473817376348,9578,114
1473817376368,9617,114
1473817376388,9632,114
1473817376408,9659,114
1473817376428,9695,114
1473817376448,9725,114
1473817376468,9770,114
1473817376488,9818,114
1473817376508,9859,114
1473817376528,9882,114
1473817376548,9888,114
1473817376568,9896,114
1473817376588,9928,114
1473817376608,9989,114
1473817376628,10104,114
1473817376648,10146,114
1473817376668,10116,114
1473817376688,10052,114
1473817376708,10027,114
1473817376728,10021,114
1473817376748,10008,114
1473817376768,10010,114
1473817376788,10025,114
1473817376808,10057,114
1473817376828,10108,114
1473817376848,10150,114
1473817376868,10183,114
1473817376888,10224,114
1473817376908,10245,114
1473817376928,10264,114
1473817376948,10275,114
1473817376968,10292,114
1473817376988,10338,114
1473817377008,10397,113
1473817377028,10451,113
1473817377048,10477,113
1473817377068,10488,113
1473817377088,10494,113
1473817377108,10498,113
1473817377128,10521,113
1473817377148,10563,113
1473817377168,10644,113
1473817377188,10694,113
1473817377208,10672,113
1473817377228,10628,113
1473817377248,10575,113
1473817377268,10532,113
1473817377288,10518,113
1473817377308,10487,113
1473817377328,10480,113
1473817377348,10474,113
1473817377368,10468,113
1473817377388,10475,113
1473817377408,10482,113
1473817377428,10487,113
1473817377448,10494,113
1473817377468,10481,113
1473817377488,10442,113
1473817377508,10422,113
1473817377528,10420,113
1473817377548,10433,113
1473817377568,10452,113
1473817377588,10462,113
1473817377608,10457,113
1473817377628,10416,113
1473817377648,10362,113
1473817377668,10366,113
1473817377688,10376,113
1473817377708,10404,113
1473817377728,10408,113
1473817377748,10380,113
1473817377768,10320,113
1473817377788,10247,113
1473817377808,10177,113
1473817377828,10117,113
1473817377848,10083,113
1473817377868,10046,113
1473817377888,10018,113
1473817377908,9997,113
1473817377928,9982,113
1473817377948,9977,113
1473817377968,9978,113
1473817377988,9976,113
1473817378008,9965,113
1473817378028,9912,113
1473817378048,9894,113
1473817378068,9897,113
1473817378088,9879,113
1473817378108,9919,113
1473817378128,9965,113
1473817378148,9959,113
1473817378168,9956,113
1473817378188,9924,113
1473817378208,9891,113
1473817378228,9912,113
1473817378248,9929,113
1473817378268,9976,113
1473817378288,9965,113
1473817378308,9924,113
1473817378328,9858,113
1473817378348,9796,113
1473817378368,9776,113
1473817378388,9747,113
1473817378408,9725,113
1473817378428,9709,113
1473817378448,9694,113
1473817378468,9680,113
1473817378488,9668,113
1473817378508,9680,113
1473817378528,9675,113
1473817378548,9684,113
1473817378568,9688,113
1473817378588,9654,113
1473817378608,9651,113
1473817378628,9672,113
1473817378648,9696,113
1473817378668,9727,113
1473817378688,9730,113
1473817378708,9712,113
1473817378728,9692,113
1473817378748,9664,113
1473817378768,9663,113
1473817378788,9699,113
1473817378808,9728,113
1473817378828,9737,113
1473817378848,9722,113
1473817378868,9690,113
1473817378888,9650,113
1473817378908,9601,113
1473817378928,9565,113
1473817378948,9536,113
1473817378968,9524,113
1473817378988,9522,113
1473817379008,9502,112
1473817379028,9505,112
1473817379048,9505,112
1473817379068,9514,112
1473817379088,9532,112
1473817379108,9522,112
1473817379128,9506,112
1473817379148,9503,112
1473817379168,9528,112
1473817379188,9567,112
1473817379208,9582,112
1473817379228,9600,112
1473817379248,9601,112
1473817379268,9585,112
1473817379288,9578,112
1473817379308,9558,112
1473817379328,9577,112
1473817379348,9605,112
1473817379368,9631,112
1473817379388,9640,112
1473817379408,9628,112
1473817379428,9596,112
1473817379448,9547,112
1473817379468,9493,112
1473817379488,9464,112
1473817379508,9433,112
1473817379528,9414,112
1473817379548,9386,112
1473817379568,9355,112
1473817379588,9357,112
1473817379608,9377,112
1473817379628,9395,112
1473817379648,9416,112
1473817379668,9413,112
1473817379688,9401,112
1473817379708,9410,112
1473817379728,9440,112
1473817379748,9470,112
1473817379768,9499,112
1473817379788,9518,112
1473817379808,9527,112
1473817379828,9512,112
1473817379848,9480,112
1473817379868,9460,112
1473817379888,9474,112
1473817379908,9519,112
1473817379928,9542,112
1473817379948,9552,112
1473817379968,9549,112
1473817379988,9526,112
1473817380008,9488,112
1473817380028,9454,112
1473817380048,9424,112
1473817380068,9392,112
1473817380088,9388,112
1473817380108,9391,112
1473817380128,9382,112
1473817380148,9392,112
1473817380168,9405,112
1473817380188,9413,112
1473817380208,9419,112
1473817380228,9405,112
1473817380248,9404,112
1473817380268,9423,112
1473817380288,9446,112
1473817380308,9494,112
1473817380328,9529,112
1473817380348,9542,112
1473817380368,9565,112
1473817380388,9583,112
1473817380408,9584,112
1473817380428,9587,112
1473817380448,9622,112
1473817380468,9677,112
1473817380488,9703,112
1473817380508,9704,112
1473817380528,9684,112
1473817380548,9642,112
1473817380568,9609,112
1473817380588,9588,112
1473817380608,9567,112
1473817380628,9561,112
1473817380648,9566,112
1473817380668,9583,112
1473817380688,9593,112
1473817380708,9621,112
1473817380728,9662,112
1473817380748,9680,112
1473817380768,9680,112
1473817380788,9692,112
1473817380808,9713,112
1473817380828,9754,112
1473817380848,9804,112
1473817380868,9849,112
1473817380888,9880,112
1473817380908,9902,112
1473817380928,9935,112
1473817380948,9942,112
1473817380968,9945,112
1473817380988,9972,112
1473817381008,10016,112
1473817381028,10109,112
1473817381048,10161,112
1473817381068,10147,112
1473817381088,10096,112
1473817381108,10049,112
1473817381128,10041,112
1473817381148,10028,112
1473817381168,10005,112
1473817381188,9994,112
1473817381208,9987,112
1473817381228,10008,112
1473817381248,10048,112
1473817381268,10095,112
1473817381288,10124,112
1473817381308,10137,112
1473817381328,10154,112
1473817381348,10151,112
1473817381368,10152,112
1473817381388,10178,112
1473817381408,10201,112
1473817381428,10245,112
1473817381448,10292,112
1473817381468,10313,112
1473817381488,10319,112
1473817381508,10312,112
1473817381528,10295,112
1473817381548,10303,112
1473817381568,10330,112
1473817381588,10400,112
1473817381608,10440,112
1473817381628,10405,112
1473817381648,10367,112
1473817381668,10306,112
1473817381688,10276,112
1473817381708,10255,112
1473817381728,10220,112
1473817381748,10209,112
1473817381768,10192,112
1473817381788,10183,112
1473817381808,10176,112
1473817381828,10160,112
1473817381848,10161,112
1473817381868,10164,112
1473817381888,10152,112
1473817381908,10143,112
1473817381928,10110,112
1473817381948,10105,112
1473817381968,10118,112
1473817381988,10126,112
1473817382008,10125,111
1473817382028,10113,111
1473817382048,10115,111
1473817382068,10089,111
1473817382088,10042,111
1473817382108,10028,111
1473817382128,10032,111
1473817382148,10057,111
1473817382168,10054,111
1473817382188,10032,111
1473817382208,9996,111
1473817382228,9938,111
1473817382248,9873,111
1473817382268,9828,111
1473817382288,9789,111
1473817382308,9765,111
1473817382328,9750,111
1473817382348,9727,111
1473817382368,9716,111
1473817382388,9710,111
1473817382408,9714,111
1473817382428,9720,111
1473817382448,9704,111
1473817382468,9688,111
1473817382488,9666,111
1473817382508,9673,111
1473817382528,9688,111
1473817382548,9702,111
1473817382568,9720,111
1473817382588,9725,111
1473817382608,9724,111
1473817382628,9712,111
1473817382648,9676,111
1473817382668,9662,111
1473817382688,9671,111
1473817382708,9702,111
1473817382728,9712,111
1473817382748,9705,111
1473817382768,9703,111
1473817382788,9662,111
1473817382808,9602,111
1473817382828,9554,111
1473817382848,9510,111
1473817382868,9497,111
1473817382888,9477,111
1473817382908,9467,111
1473817382928,9445,111
1473817382948,9437,111
1473817382968,9435,111
1473817382988,9434,111
1473817383008,9421,111
1473817383028,9400,111
1473817383048,9320,111
1473817383068,9321,111
1473817383088,9370,111
1473817383108,9362,111
1473817383128,9383,111
1473817383148,9364,111
1473817383168,9366,111
1473817383188,9361,111
1473817383208,9329,111
1473817383228,9287,111
1473817383248,9277,111
1473817383268,9288,111
1473817383288,9316,111
1473817383308,9311,111
1473817383328,9302,111
1473817383348,9270,111
1473817383368,9203,111
1473817383388,9160,111
1473817383408,9128,111
1473817383428,9097,111
1473817383448,9078,111
1473817383468,9067,111
1473817383488,9057,111
1473817383508,9048,111
1473817383528,9057,111
1473817383548,9065,111
1473817383568,9063,111
1473817383588,9064,111
1473817383608,9036,111
1473817383628,9018,111
1473817383648,9050,111
1473817383668,9070,111
1473817383688,9097,111
1473817383708,9106,111
1473817383728,9109,111
1473817383748,9119,111
1473817383768,9120,111
1473817383788,9120,111
1473817383808,9108,111
1473817383828,9119,111
1473817383848,9152,111
1473817383868,9172,111
1473817383888,9204,111
1473817383908,9203,111
1473817383928,9156,111
1473817383948,9098,111
1473817383968,9041,111
1473817383988,8999,111
1473817384008,8980,109
1473817384028,8973,109
1473817384048,8977,109
1473817384068,8972,109
1473817384088,8996,109
1473817384108,9031,109
1473817384128,9038,109
1473817384148,9040,109
1473817384168,9031,109
1473817384188,9024,109
1473817384208,9032,109
1473817384228,9068,109
1473817384248,9104,109
1473817384268,9109,109
1473817384288,9112,109
1473817384308,9112,109
1473817384328,9122,109
1473817384348,9146,109
1473817384368,9129,109
1473817384388,9104,109
1473817384408,9136,109
1473817384428,9176,109
1473817384448,9209,109
1473817384468,9219,109
1473817384488,9212,109
1473817384508,9209,109
1473817384528,9171,109
1473817384548,9125,109
1473817384568,9132,109
1473817384588,9116,109
1473817384608,9126,109
1473817384628,9134,109
1473817384648,9142,109
1473817384668,9158,109
1473817384688,9172,109
1473817384708,9194,109
1473817384728,9214,109
1473817384748,9213,109
1473817384768,9201,109
1473817384788,9218,109
1473817384808,9275,109
1473817384828,9318,109
1473817384848,9340,109
1473817384868,9364,109
1473817384888,9368,109
1473817384908,9404,109
1473817384928,9428,109
1473817384948,9420,109
1473817384968,9430,109
1473817384988,9458,109
1473817385008,9501,109
1473817385028,9557,109
1473817385048,9572,109
1473817385068,9538,109
1473817385088,9505,109
1473817385108,9478,109
1473817385128,9472,109
1473817385148,9446,109
1473817385168,9416,109
1473817385188,9410,109
1473817385208,9415,109
1473817385228,9442,109
1473817385248,9474,109
1473817385268,9523,109
1473817385288,9562,109
1473817385308,9572,109
1473817385328,9582,109
1473817385348,9592,109
1473817385368,9628,109
1473817385388,9674,109
1473817385408,9706,109
1473817385428,9738,109
1473817385448,9745,109
1473817385468,9753,109
1473817385488,9764,109
1473817385508,9755,109
1473817385528,9752,109
1473817385548,9749,109
1473817385568,9771,109
1473817385588,9805,109
1473817385608,9832,109
1473817385628,9843,109
1473817385648,9819,109
1473817385668,9790,109
1473817385688,9753,109
1473817385708,9730,109
1473817385728,9690,109
1473817385748,9670,109
1473817385768,9665,109
1473817385788,9665,109
1473817385808,9658,109
1473817385828,9659,109
1473817385848,9682,109
1473817385868,9681,109
1473817385888,9656,109
1473817385908,9632,109
1473817385928,9612,109
1473817385948,9621,109
1473817385968,9656,109
1473817385988,9676,109
1473817386008,9685,107
1473817386028,9696,107
1473817386048,9727,107
1473817386068,9722,107
1473817386088,9704,107
1473817386108,9687,107
1473817386128,9702,107
1473817386148,9737,107
1473817386168,9779,107
1473817386188,9797,107
1473817386208,9778,107
1473817386228,9736,107
1473817386248,9703,107
1473817386268,9666,107
1473817386288,9650,107
1473817386308,9632,107
1473817386328,9588,107
1473817386348,9552,107
1473817386368,9502,107
1473817386388,9467,107
1473817386408,9448,107
1473817386428,9417,107
1473817386448,9407,107
1473817386468,9387,107
1473817386488,9323,107
1473817386508,9283,107
1473817386528,9276,107
1473817386548,9291,107
1473817386568,9302,107
1473817386588,9303,107
1473817386608,9301,107
1473817386628,9294,107
1473817386648,9300,107
1473817386668,9305,107
1473817386688,9291,107
1473817386708,9304,107
1473817386728,9365,107
1473817386748,9404,107
1473817386768,9362,107
1473817386788,9347,107
1473817386808,9352,107
1473817386828,9290,107
1473817386848,9242,107
1473817386868,9259,107
1473817386888,9268,107
1473817386908,9279,107
1473817386928,9260,107
1473817386948,9230,107
1473817386968,9268,107
1473817386988,9314,107
1473817387008,9322,107
1473817387028,9310,107
1473817387048,9285,107
1473817387068,9296,107
1473817387088,9395,107
1473817387108,9428,107
1473817387128,9442,107
1473817387148,9464,107
1473817387168,9522,107
1473817387188,9572,107
1473817387208,9592,107
1473817387228,9616,107
1473817387248,9674,107
1473817387268,9754,107
1473817387288,9795,107
1473817387308,9830,107
1473817387328,9878,107
1473817387348,9892,107
1473817387368,9894,107
1473817387388,9852,107
1473817387408,9828,107
1473817387428,9802,107
1473817387448,9788,107
1473817387468,9788,107
1473817387488,9806,107
1473817387508,9804,107
1473817387528,9805,107
1473817387548,9798,107
1473817387568,9813,107
1473817387588,9822,107
1473817387608,9804,107
1473817387628,9792,107
1473817387648,9782,107
1473817387668,9801,107
1473817387688,9837,107
1473817387708,9862,107
1473817387728,9872,107
1473817387748,9878,107
1473817387768,9868,107
1473817387788,9848,107
1473817387808,9839,107
1473817387828,9856,107
1473817387848,9892,107
1473817387868,9901,107
1473817387888,9902,107
1473817387908,9878,107
1473817387928,9824,107
1473817387948,9764,107
1473817387968,9724,107
1473817387988,9709,107
1473817388008,9688,108
1473817388028,9668,108
1473817388048,9658,108
1473817388068,9623,108
1473817388088,9622,108
1473817388108,9616,108
1473817388128,9629,108
1473817388148,9628,108
1473817388168,9592,108
1473817388188,9584,108
1473817388208,9590,108
1473817388228,9614,108
1473817388248,9640,108
1473817388268,9643,108
1473817388288,9641,108
1473817388308,9633,108
1473817388328,9602,108
1473817388348,9570,108
1473817388368,9574,108
1473817388388,9611,108
1473817388408,9636,108
1473817388428,9612,108
1473817388448,9592,108
1473817388468,9548,108
1473817388488,9488,108
1473817388508,9454,108
1473817388528,9430,108
1473817388548,9406,108
1473817388568,9376,108
1473817388588,9352,108
1473817388608,9337,108
1473817388628,9340,108
1473817388648,9352,108
1473817388668,9367,108
1473817388688,9355,108
1473817388708,9333,108
1473817388728,9318,108
1473817388748,9318,108
1473817388768,9339,108
1473817388788,9364,108
1473817388808,9396,108
1473817388828,9403,108
1473817388848,9390,108
1473817388868,9367,108
1473817388888,9336,108
1473817388908,9354,108
1473817388928,9407,108
1473817388948,9440,108
1473817388968,9439,108
1473817388988,9419,108
1473817389008,9392,109
1473817389028,9332,109
1473817389048,9274,109
1473817389068,9258,109
1473817389088,9225,109
1473817389108,9206,109
1473817389128,9181,109
1473817389148,9160,109
1473817389168,9166,109
1473817389188,9180,109
1473817389208,9192,109
1473817389228,9213,109
1473817389248,9196,109
1473817389268,9188,109
1473817389288,9198,109
1473817389308,9216,109
1473817389328,9262,109
1473817389348,9298,109
1473817389368,9323,109
1473817389388,9315,109
1473817389408,9310,109
1473817389428,9306,109
1473817389448,9304,109
1473817389468,9337,109
1473817389488,9386,109
1473817389508,9405,109
1473817389528,9440,109
1473817389548,9425,109
1473817389568,9381,109
1473817389588,9334,109
1473817389608,9306,109
1473817389628,9302,109
1473817389648,9288,109
1473817389668,9273,109
1473817389688,9251,109
1473817389708,9236,109
1473817389728,9260,109
1473817389748,9299,109
1473817389768,9316,109
1473817389788,9321,109
1473817389808,9307,109
1473817389828,9332,109
1473817389848,9374,109
1473817389868,9424,109
1473817389888,9470,109
1473817389908,9483,109
1473817389928,9491,109
1473817389948,9505,109
1473817389968,9483,109
1473817389988,9499,109
1473817390008,9526,110
1473817390028,9579,110
1473817390048,9620,110
1473817390068,9636,110
1473817390088,9589,110
1473817390108,9548,110
1473817390128,9552,110
1473817390148,9545,110
1473817390168,9540,110
1473817390188,9534,110
1473817390208,9531,110
1473817390228,9532,110
1473817390248,9564,110
1473817390268,9576,110
1473817390288,9596,110
1473817390308,9620,110
1473817390328,9630,110
1473817390348,9636,110
1473817390368,9633,110
1473817390388,9668,110
1473817390408,9712,110
1473817390428,9736,110
1473817390448,9784,110
1473817390468,9797,110
1473817390488,9815,110
1473817390508,9823,110
1473817390528,9802,110
1473817390548,9816,110
1473817390568,9847,110
1473817390588,9911,110
1473817390608,9968,110
1473817390628,9933,110
1473817390648,9899,110
1473817390668,9864,110
1473817390688,9830,110
1473817390708,9816,110
1473817390728,9776,110
1473817390748,9788,110
1473817390768,9797,110
1473817390788,9808,110
1473817390808,9834,110
1473817390828,9851,110
1473817390848,9889,110
1473817390868,9922,110
1473817390888,9948,110
1473817390908,9968,110
1473817390928,9989,110
1473817390948,10020,110
1473817390968,10084,110
1473817390988,10120,110
1473817391008,10152,111
1473817391028,10178,111
1473817391048,10188,111
1473817391068,10201,111
1473817391088,10200,111
1473817391108,10218,111
1473817391128,10260,111
1473817391148,10312,111
1473817391168,10342,111
1473817391188,10316,111
1473817391208,10274,111
1473817391228,10226,111
1473817391248,10188,111
1473817391268,10178,111
1473817391288,10160,111
1473817391308,10153,111
1473817391328,10141,111
1473817391348,10114,111
1473817391368,10114,111
1473817391388,10121,111
1473817391408,10117,111
1473817391428,10115,111
1473817391448,10082,111
1473817391468,10048,111
1473817391488,10032,111
1473817391508,10042,111
1473817391528,10085,111
1473817391548,10092,111
1473817391568,10091,111
1473817391588,10083,111
1473817391608,10049,111
1473817391628,10016,111
1473817391648,9989,111
1473817391668,10002,111
1473817391688,10022,111
1473817391708,10035,111
1473817391728,10012,111
1473817391748,9979,111
1473817391768,9920,111
1473817391788,9870,111
1473817391808,9816,111
1473817391828,9775,111
1473817391848,9743,111
1473817391868,9690,111
1473817391888,9705,111
1473817391908,9692,111
1473817391928,9681,111
1473817391948,9676,111
1473817391968,9674,111
1473817391988,9669,111
1473817392008,9648,112
1473817392028,9614,112
1473817392048,9610,112
1473817392068,9633,112
1473817392088,9657,112
1473817392108,9676,112
1473817392128,9674,112
1473817392148,9664,112
1473817392168,9641,112
1473817392188,9613,112
1473817392208,9604,112
1473817392228,9621,112
1473817392248,9641,112
1473817392268,9630,112
1473817392288,9631,112
1473817392308,9633,112
1473817392328,9588,112
1473817392348,9532,112
1473817392368,9487,112
1473817392388,9464,112
1473817392408,9448,112
1473817392428,9417,112
1473817392448,9397,112
1473817392468,9402,112
1473817392488,9433,112
1473817392508,9447,112
1473817392528,9436,112
1473817392548,9406,112
1473817392568,9388,112
1473817392588,9401,112
1473817392608,9431,112
1473817392628,9453,112
1473817392648,9464,112
1473817392668,9475,112
1473817392688,9480,112
1473817392708,9500,112
1473817392728,9490,112
1473817392748,9462,112
1473817392768,9428,112
1473817392788,9446,112
1473817392808,9506,112
1473817392828,9532,112
1473817392848,9517,112
1473817392868,9496,112
1473817392888,9470,112
1473817392908,9453,112
1473817392928,9400,112
1473817392948,9358,112
1473817392968,9329,112
1473817392988,9311,112
1473817393008,9316,113
1473817393028,9292,113
1473817393048,9282,113
1473817393068,9292,113
1473817393088,9284,113
1473817393108,9289,113
1473817393128,9269,113
1473817393148,9260,113
1473817393168,9286,113
1473817393188,9320,113
1473817393208,9345,113
1473817393228,9372,113
1473817393248,9388,113
1473817393268,9410,113
1473817393288,9422,113
1473817393308,9426,113
1473817393328,9410,113
1473817393348,9427,113
1473817393368,9468,113
1473817393388,9512,113
1473817393408,9568,113
1473817393428,9565,113
1473817393448,9543,113
1473817393468,9524,113
1473817393488,9493,113
1473817393508,9490,113
1473817393528,9476,113
1473817393548,9465,113
1473817393568,9468,113
1473817393588,9483,113
1473817393608,9504,113
1473817393628,9542,113
1473817393648,9564,113
1473817393668,9579,113
1473817393688,9584,113
1473817393708,9580,113
1473817393728,9606,113
1473817393748,9640,113
1473817393768,9698,113
1473817393788,9720,113
1473817393808,9748,113
1473817393828,9774,113
1473817393848,9800,113
1473817393868,9813,113
1473817393888,9805,113
1473817393908,9791,113
1473817393928,9777,113
1473817393948,9835,113
1473817393968,9918,113
1473817393988,9940,113
1473817394008,9886,113
1473817394028,9863,113
1473817394048,9840,113
1473817394068,9814,113
1473817394088,9776,113
1473817394108,9771,113
1473817394128,9795,113
1473817394148,9799,113
1473817394168,9813,113
1473817394188,9844,113
1473817394208,9867,113
1473817394228,9894,113
1473817394248,9907,113
1473817394268,9922,113
1473817394288,9940,113
1473817394308,9976,113
1473817394328,10036,113
1473817394348,10096,113
1473817394368,10124,113
1473817394388,10156,113
1473817394408,10183,113
1473817394428,10210,113
1473817394448,10251,113
1473817394468,10235,113
1473817394488,10206,113
1473817394508,10208,113
1473817394528,10232,113
1473817394548,10308,113
1473817394568,10346,113
1473817394588,10312,113
1473817394608,10266,113
1473817394628,10226,113
1473817394648,10208,113
1473817394668,10176,113
1473817394688,10153,113
1473817394708,10140,113
1473817394728,10134,113
1473817394748,10143,113
1473817394768,10140,113
1473817394788,10132,113
1473817394808,10138,113
1473817394828,10120,113
1473817394848,10116,113
1473817394868,10105,113
1473817394888,10095,113
1473817394908,10113,113
1473817394928,10130,113
1473817394948,10137,113
1473817394968,10138,113
1473817394988,10147,113
1473817395008,10154,113
1473817395028,10123,113
1473817395048,10096,113
1473817395068,10077,113
1473817395088,10078,113
1473817395108,10088,113
1473817395128,10113,113
1473817395148,10108,113
1473817395168,10079,113
1473817395188,10017,113
1473817395208,9957,113
1473817395228,9901,113
1473817395248,9854,113
1473817395268,9821,113
1473817395288,9789,113
1473817395308,9776,113
1473817395328,9755,113
1473817395348,9736,113
1473817395368,9733,113
1473817395388,9728,113
1473817395408,9730,113
1473817395428,9709,113
1473817395448,9678,113
1473817395468,9672,113
1473817395488,9688,113
1473817395508,9706,113
1473817395528,9720,113
1473817395548,9718,113
1473817395568,9723,113
1473817395588,9730,113
1473817395608,9712,113
1473817395628,9683,113
1473817395648,9655,113
1473817395668,9666,113
1473817395688,9676,113
1473817395708,9703,113
1473817395728,9720,113
1473817395748,9704,113
1473817395768,9683,113
1473817395788,9629,113
1473817395808,9556,113
1473817395828,9538,113
1473817395848,9504,113
1473817395868,9489,113
1473817395888,9487,113
1473817395908,9469,113
1473817395928,9459,113
1473817395948,9471,113
1473817395968,9468,113
1473817395988,9474,113
1473817396008,9456,113
1473817396028,9434,113
1473817396048,9430,113
1473817396068,9449,113
1473817396088,9475,113
1473817396108,9483,113
1473817396128,9496,113
1473817396148,9497,113
1473817396168,9510,113
1473817396188,9503,113
1473817396208,9478,113
1473817396228,9460,113
1473817396248,9459,113
1473817396268,9472,113
1473817396288,9505,113
1473817396308,9537,113
1473817396328,9531,113
1473817396348,9516,113
1473817396368,9476,113
1473817396388,9434,113
1473817396408,9390,113
1473817396428,9353,113
1473817396448,9328,113
1473817396468,9292,113
1473817396488,9280,113
1473817396508,9278,113
1473817396528,9289,113
1473817396548,9310,113
1473817396568,9315,113
1473817396588,9321,113
1473817396608,9302,113
1473817396628,9300,113
1473817396648,9322,113
1473817396668,9355,113
1473817396688,9390,113
1473817396708,9416,113
1473817396728,9431,113
1473817396748,9454,113
1473817396768,9450,113
1473817396788,9449,113
1473817396808,9446,113
1473817396828,9462,113
1473817396848,9498,113
1473817396868,9514,113
1473817396888,9540,113
1473817396908,9544,113
1473817396928,9518,113
1473817396948,9497,113
1473817396968,9474,113
1473817396988,9442,113
1473817397008,9389,112
1473817397028,9420,112
1473817397048,9405,112
1473817397068,9398,112
1473817397088,9417,112
1473817397108,9461,112
1473817397128,9477,112
1473817397148,9466,112
1473817397168,9428,112
1473817397188,9426,112
1473817397208,9470,112
1473817397228,9522,112
1473817397248,9578,112
1473817397268,9596,112
1473817397288,9609,112
1473817397308,9634,112
1473817397328,9650,112
1473817397348,9672,112
1473817397368,9659,112
1473817397388,9663,112
1473817397408,9689,112
1473817397428,9696,112
1473817397448,9726,112
1473817397468,9762,112
1473817397488,9747,112
1473817397508,9713,112
1473817397528,9681,112
1473817397548,9649,112
1473817397568,9636,112
1473817397588,9620,112
1473817397608,9638,112
1473817397628,9650,112
1473817397648,9660,112
1473817397668,9688,112
1473817397688,9710,112
1473817397708,9745,112
1473817397728,9763,112
1473817397748,9779,112
1473817397768,9800,112
1473817397788,9834,112
1473817397808,9888,112
1473817397828,9942,112
1473817397848,9990,112
1473817397868,10040,112
1473817397888,10084,112
1473817397908,10107,112
1473817397928,10108,112
1473817397948,10087,112
1473817397968,10096,112
1473817397988,10112,112
1473817398008,10149,112
1473817398028,10222,112
1473817398048,10260,112
1473817398068,10235,112
1473817398088,10204,112
1473817398108,10161,112
1473817398128,10143,112
1473817398148,10119,112
1473817398168,10089,112
1473817398188,10078,112
1473817398208,10035,112
1473817398228,10025,112
1473817398248,10008,112
1473817398268,10007,112
1473817398288,10014,112
1473817398308,9999,112
1473817398328,9986,112
1473817398348,9962,112
1473817398368,9941,112
1473817398388,9950,112
1473817398408,9958,112
1473817398428,9964,112
1473817398448,9961,112
1473817398468,9957,112
1473817398488,9956,112
1473817398508,9920,112
1473817398528,9885,112
1473817398548,9886,112
1473817398568,9890,112
1473817398588,9908,112
1473817398608,9911,112
1473817398628,9895,112
1473817398648,9870,112
1473817398668,9819,112
1473817398688,9758,112
1473817398708,9712,112
1473817398728,9664,112
1473817398748,9641,112
1473817398768,9616,112
1473817398788,9592,112
1473817398808,9565,112
1473817398828,9547,112
1473817398848,9562,112
1473817398868,9567,112
1473817398888,9579,112
1473817398908,9565,112
1473817398928,9537,112
1473817398948,9549,112
1473817398968,9568,112
1473817398988,9584,112
1473817399008,9595,111
1473817399028,9589,111
1473817399048,9592,111
1473817399068,9593,111
1473817399088,9542,111
1473817399108,9517,111
1473817399128,9513,111
1473817399148,9530,111
1473817399168,9548,111
1473817399188,9538,111
1473817399208,9480,111
1473817399228,9483,111
1473817399248,9432,111
1473817399268,9370,111
1473817399288,9328,111
1473817399308,9281,111
1473817399328,9242,111
1473817399348,9204,111
1473817399368,9169,111
1473817399388,9148,111
1473817399408,9136,111
1473817399428,9124,111
1473817399448,9113,111
1473817399468,9108,111
1473817399488,9074,111
1473817399508,9058,111
1473817399528,9078,111
1473817399548,9086,111
1473817399568,9122,111
1473817399588,9129,111
1473817399608,9136,111
1473817399628,9125,111
1473817399648,9101,111
1473817399668,9070,111
1473817399688,9061,111
1473817399708,9080,111
1473817399728,9107,111
1473817399748,9104,111
1473817399768,9102,111
1473817399788,9096,111
1473817399808,9064,111
1473817399828,9018,111
1473817399848,8974,111
1473817399868,8965,111
1473817399888,8941,111
1473817399908,8932,111
1473817399928,8927,111
1473817399948,8913,111
1473817399968,8936,111
1473817399988,8954,111
1473817400008,8967,110
1473817400028,8970,110
1473817400048,8955,110
1473817400068,8956,110
1473817400088,8980,110
1473817400108,9002,110
1473817400128,9008,110
1473817400148,9006,110
1473817400168,9034,110
1473817400188,9067,110
1473817400208,9082,110
1473817400228,9074,110
1473817400248,9060,110
1473817400268,9082,110
1473817400288,9124,110
1473817400308,9175,110
1473817400328,9184,110
1473817400348,9168,110
1473817400368,9114,110
1473817400388,9074,110
1473817400408,9052,110
1473817400428,9037,110
1473817400448,9022,110
1473817400468,9028,110
1473817400488,9050,110
1473817400508,9058,110
1473817400528,9072,110
1473817400548,9087,110
1473817400568,9108,110
1473817400588,9131,110
1473817400608,9132,110
1473817400628,9150,110
1473817400648,9187,110
1473817400668,9230,110
1473817400688,9268,110
1473817400708,9298,110
1473817400728,9320,110
1473817400748,9350,110
1473817400768,9372,110
1473817400788,9381,110
1473817400808,9382,110
1473817400828,9401,110
1473817400848,9450,110
1473817400868,9497,110
1473817400888,9529,110
1473817400908,9506,110
1473817400928,9473,110
1473817400948,9446,110
1473817400968,9421,110
1473817400988,9407,110
1473817401008,9403,110
1473817401028,9402,110
1473817401048,9430,110
1473817401068,9445,110
1473817401088,9483,110
1473817401108,9522,110
1473817401128,9561,110
1473817401148,9587,110
1473817401168,9620,110
1473817401188,9672,110
1473817401208,9728,110
1473817401228,9773,110
1473817401248,9827,110
1473817401268,9880,110
1473817401288,9932,110
1473817401308,9987,110
1473817401328,10000,110
1473817401348,9987,110
1473817401368,9976,110
1473817401388,9999,110
1473817401408,10074,110
1473817401428,10153,110
1473817401448,10179,110
1473817401468,10150,110
1473817401488,10109,110
1473817401508,10091,110
1473817401528,10085,110
1473817401548,10077,110
1473817401568,10074,110
1473817401588,10080,110
1473817401608,10087,110
1473817401628,10043,110
1473817401648,10034,110
1473817401668,10049,110
1473817401688,10074,110
1473817401708,10088,110
1473817401728,10052,110
1473817401748,10023,110
1473817401768,10004,110
1473817401788,9996,110
1473817401808,10006,110
1473817401828,10030,110
1473817401848,10040,110
1473817401868,10040,110
1473817401888,10006,110
1473817401908,9976,110
1473817401928,9939,110
1473817401948,9934,110
1473817401968,9946,110
1473817401988,9954,110
1473817402008,9930,109
1473817402028,9910,109
1473817402048,9841,109
1473817402068,9759,109
1473817402088,9700,109
1473817402108,9652,109
1473817402128,9633,109
1473817402148,9630,109
1473817402168,9623,109
1473817402188,9600,109
1473817402208,9584,109
1473817402228,9596,109
1473817402248,9614,109
1473817402268,9626,109
1473817402288,9611,109
1473817402308,9578,109
1473817402328,9564,109
1473817402348,9577,109
1473817402368,9588,109
1473817402388,9597,109
1473817402408,9600,109
1473817402428,9603,109
1473817402448,9589,109
1473817402468,9563,109
1473817402488,9546,109
1473817402508,9543,109
1473817402528,9569,109
1473817402548,9578,109
1473817402568,9566,109
1473817402588,9553,109
1473817402608,9505,109
1473817402628,9447,109
1473817402648,9409,109
1473817402668,9373,109
1473817402688,9337,109
1473817402708,9306,109
1473817402728,9296,109
1473817402748,9286,109
1473817402768,9283,109
1473817402788,9290,109
1473817402808,9284,109
1473817402828,9289,109
1473817402848,9296,109
1473817402868,9274,109
1473817402888,9279,109
1473817402908,9296,109
1473817402928,9314,109
1473817402948,9334,109
1473817402968,9345,109
1473817402988,9353,109
1473817403008,9344,109
1473817403028,9312,109
1473817403048,9297,109
1473817403068,9293,109
1473817403088,9327,109
1473817403108,9350,109
1473817403128,9346,109
1473817403148,9342,109
1473817403168,9305,109
1473817403188,9256,109
1473817403208,9205,109
1473817403228,9171,109
1473817403248,9157,109
1473817403268,9134,109
1473817403288,9115,109
1473817403308,9090,109
1473817403328,9080,109
1473817403348,9097,109
1473817403368,9112,109
1473817403388,9128,109
1473817403408,9139,109
1473817403428,9114,109
1473817403448,9118,109
1473817403468,9145,109
1473817403488,9182,109
1473817403508,9211,109
1473817403528,9229,109
1473817403548,9246,109
1473817403568,9250,109
1473817403588,9236,109
1473817403608,9215,109
1473817403628,9216,109
1473817403648,9254,109
1473817403668,9313,109
1473817403688,9340,109
1473817403708,9336,109
1473817403728,9302,109
1473817403748,9260,109
1473817403768,9245,109
1473817403788,9236,109
1473817403808,9225,109
1473817403828,9213,109
1473817403848,9188,109
1473817403868,9196,109
1473817403888,9211,109
1473817403908,9244,109
1473817403928,9260,109
1473817403948,9274,109
1473817403968,9290,109
1473817403988,9288,109
1473817404008,9295,110
1473817404028,9329,110
1473817404048,9360,110
1473817404068,9406,110
1473817404088,9427,110
1473817404108,9437,110
1473817404128,9442,110
1473817404148,9424,110
1473817404168,9428,110
1473817404188,9451,110
1473817404208,9491,110
1473817404228,9546,110
1473817404248,9575,110
1473817404268,9576,110
1473817404288,9540,110
1473817404308,9508,110
1473817404328,9485,110
1473817404348,9466,110
1473817404368,9459,110
1473817404388,9449,110
1473817404408,9437,110
1473817404428,9442,110
1473817404448,9474,110
1473817404468,9500,110
1473817404488,9548,110
1473817404508,9583,110
1473817404528,9608,110
1473817404548,9628,110
1473817404568,9657,110
1473817404588,9711,110
1473817404608,9762,110
1473817404628,9819,110
1473817404648,9864,110
1473817404668,9899,110
1473817404688,9931,110
1473817404708,9946,110
1473817404728,9954,110
1473817404748,9960,110
1473817404768,9984,110
1473817404788,10035,110
1473817404808,10092,110
1473817404828,10093,110
1473817404848,10038,110
1473817404868,9990,110
1473817404888,9970,110
1473817404908,9942,110
1473817404928,9914,110
1473817404948,9896,110
1473817404968,9883,110
1473817404988,9895,110
1473817405008,9908,109
1473817405028,9912,109
1473817405048,9923,109
1473817405068,9920,109
1473817405088,9933,109
1473817405108,9922,109
1473817405128,9905,109
1473817405148,9910,109
1473817405168,9924,109
1473817405188,9951,109
1473817405208,9954,109
1473817405228,9956,109
1473817405248,9954,109
1473817405268,9936,109
1473817405288,9907,109
1473817405308,9898,109
1473817405328,9899,109
1473817405348,9931,109
1473817405368,9990,109
1473817405388,10016,109
1473817405408,10010,109
1473817405428,9947,109
1473817405448,9876,109
1473817405468,9824,109
1473817405488,9795,109
1473817405508,9787,109
1473817405528,9754,109
1473817405548,9719,109
1473817405568,9676,109
1473817405588,9648,109
1473817405608,9661,109
1473817405628,9673,109
1473817405648,9685,109
1473817405668,9662,109
1473817405688,9630,109
1473817405708,9617,109
1473817405728,9625,109
1473817405748,9644,109
1473817405768,9662,109
1473817405788,9678,109
1473817405808,9680,109
1473817405828,9676,109
1473817405848,9642,109
1473817405868,9619,109
1473817405888,9617,109
1473817405908,9638,109
1473817405928,9663,109
1473817405948,9660,109
1473817405968,9634,109
1473817405988,9597,109
1473817406008,9547,109
1473817406028,9500,109
1473817406048,9467,109
1473817406068,9454,109
1473817406088,9432,109
1473817406108,9428,109
1473817406128,9418,109
1473817406148,9415,109
1473817406168,9418,109
1473817406188,9418,109
1473817406208,9421,109
1473817406228,9429,109
1473817406248,9412,109
1473817406268,9405,109
1473817406288,9412,109
1473817406308,9430,109
1473817406328,9452,109
1473817406348,9469,109
1473817406368,9488,109
1473817406388,9472,109
1473817406408,9454,109
1473817406428,9433,109
1473817406448,9434,109
1473817406468,9440,109
1473817406488,9476,109
1473817406508,9484,109
1473817406528,9488,109
1473817406548,9482,109
1473817406568,9432,109
1473817406588,9383,109
1473817406608,9336,109
1473817406628,9315,109
1473817406648,9272,109
1473817406668,9245,109
1473817406688,9223,109
1473817406708,9203,109
1473817406728,9224,109
1473817406748,9235,109
1473817406768,9254,109
1473817406788,9261,109
1473817406808,9233,109
1473817406828,9236,109
1473817406848,9264,109
1473817406868,9308,109
1473817406888,9346,109
1473817406908,9359,109
1473817406928,9376,109
1473817406948,9402,109
1473817406968,9413,109
1473817406988,9405,109
1473817407008,9399,108
1473817407028,9437,108
1473817407048,9485,108
1473817407068,9521,108
1473817407088,9528,108
1473817407108,9506,108
1473817407128,9476,108
1473817407148,9448,108
1473817407168,9412,108
1473817407188,9408,108
1473817407208,9400,108
1473817407228,9397,108
1473817407248,9402,108
1473817407268,9416,108
1473817407288,9438,108
1473817407308,9454,108
1473817407328,9456,108
1473817407348,9478,108
1473817407368,9459,108
1473817407388,9471,108
1473817407408,9479,108
1473817407428,9512,108
1473817407448,9541,108
1473817407468,9557,108
1473817407488,9562,108
1473817407508,9588,108
1473817407528,9590,108
1473817407548,9590,108
1473817407568,9597,108
1473817407588,9628,108
1473817407608,9679,108
1473817407628,9720,108
1473817407648,9732,108
1473817407668,9695,108
1473817407688,9661,108
1473817407708,9642,108
1473817407728,9632,108
1473817407748,9620,108
1473817407768,9610,108
1473817407788,9610,108
1473817407808,9619,108
1473817407828,9633,108
1473817407848,9664,108
1473817407868,9692,108
1473817407888,9725,108
1473817407908,9752,108
1473817407928,9774,108
1473817407948,9807,108
1473817407968,9856,108
1473817407988,9909,108
1473817408008,9964,108
1473817408028,10008,108
1473817408048,10048,108
1473817408068,10092,108
1473817408088,10103,108
1473817408108,10103,108
1473817408128,10107,108
1473817408148,10128,108
1473817408168,10208,108
1473817408188,10260,108
1473817408208,10244,108
1473817408228,10196,108
1473817408248,10162,108
1473817408268,10152,108
1473817408288,10138,108
1473817408308,10126,108
1473817408328,10118,108
1473817408348,10098,108
1473817408368,10110,108
1473817408388,10144,108
1473817408408,10155,108
1473817408428,10185,108
1473817408448,10182,108
1473817408468,10181,108
1473817408488,10148,108
1473817408508,10180,108
1473817408528,10177,108
1473817408548,10188,108
1473817408568,10215,108
1473817408588,10225,108
1473817408608,10229,108
1473817408628,10212,108
1473817408648,10192,108
1473817408668,10170,108
1473817408688,10172,108
1473817408708,10186,108
1473817408728,10214,108
1473817408748,10206,108
1473817408768,10176,108
1473817408788,10128,108
1473817408808,10053,108
1473817408828,9999,108
1473817408848,9947,108
1473817408868,9900,108
1473817408888,9881,108
1473817408908,9863,108
1473817408928,9842,108
1473817408948,9826,108
1473817408968,9816,108
1473817408988,9827,108
1473817409008,9824,107
1473817409028,9812,107
1473817409048,9780,107
1473817409068,9760,107
1473817409088,9776,107
1473817409108,9793,107
1473817409128,9816,107
1473817409148,9823,107
1473817409168,9820,107
1473817409188,9816,107
1473817409208,9780,107
1473817409228,9755,107
1473817409248,9768,107
1473817409268,9796,107
1473817409288,9824,107
1473817409308,9808,107
1473817409328,9791,107
1473817409348,9747,107
1473817409368,9676,107
1473817409388,9638,107
1473817409408,9610,107
1473817409428,9580,107
1473817409448,9565,107
1473817409468,9553,107
1473817409488,9543,107
1473817409508,9552,107
1473817409528,9559,107
1473817409548,9563,107
1473817409568,9552,107
1473817409588,9526,107
1473817409608,9513,107
1473817409628,9499,107
1473817409648,9519,107
1473817409668,9537,107
1473817409688,9553,107
1473817409708,9562,107
1473817409728,9563,107
1473817409748,9549,107
1473817409768,9520,107
1473817409788,9530,107
1473817409808,9563,107
1473817409828,9603,107
1473817409848,9610,107
1473817409868,9598,107
1473817409888,9568,107
1473817409908,9536,107
1473817409928,9494,107
1473817409948,9461,107
1473817409968,9428,107
1473817409988,9392,107
1473817410008,9380,107
1473817410028,9368,107
1473817410048,9359,107
1473817410068,9363,107
1473817410088,9360,107
1473817410108,9376,107
1473817410128,9365,107
1473817410148,9349,107
1473817410168,9332,107
1473817410188,9352,107
1473817410208,9399,107
1473817410228,9441,107
1473817410248,9464,107
1473817410268,9462,107
1473817410288,9452,107
1473817410308,9438,107
1473817410328,9431,107
1473817410348,9449,107
1473817410368,9496,107
1473817410388,9544,107
1473817410408,9550,107
1473817410428,9547,107
1473817410448,9507,107
1473817410468,9475,107
1473817410488,9454,107
1473817410508,9436,107
1473817410528,9419,107
1473817410548,9397,107
1473817410568,9401,107
1473817410588,9404,107
1473817410608,9430,107
1473817410628,9449,107
1473817410648,9459,107
1473817410668,9454,107
1473817410688,9451,107
1473817410708,9462,107
1473817410728,9501,107
1473817410748,9549,107
1473817410768,9588,107
1473817410788,9612,107
1473817410808,9620,107
1473817410828,9646,107
1473817410848,9658,107
1473817410868,9667,107
1473817410888,9689,107
1473817410908,9718,107
1473817410928,9782,107
1473817410948,9820,107
1473817410968,9797,107
1473817410988,9763,107
1473817411008,9712,106
1473817411028,9693,106
1473817411048,9676,106
1473817411068,9658,106
1473817411088,9658,106
1473817411108,9652,106
1473817411128,9666,106
1473817411148,9687,106
1473817411168,9709,106
1473817411188,9740,106
1473817411208,9763,106
1473817411228,9792,106
1473817411248,9825,106
1473817411268,9854,106
1473817411288,9905,106
1473817411308,9941,106
1473817411328,9994,106
1473817411348,10046,106
1473817411368,10080,106
1473817411388,10099,106
1473817411408,10112,106
1473817411428,10126,106
1473817411448,10162,106
1473817411468,10228,106
1473817411488,10301,106
1473817411508,10301,106
1473817411528,10260,106
1473817411548,10235,106
1473817411568,10212,106
1473817411588,10201,106
1473817411608,10181,106
1473817411628,10167,106
1473817411648,10184,106
1473817411668,10195,106
1473817411688,10222,106
1473817411708,10239,106
1473817411728,10260,106
1473817411748,10286,106
1473817411768,10297,106
1473817411788,10310,106
1473817411808,10317,106
1473817411828,10326,106
1473817411848,10356,106
1473817411868,10383,106
1473817411888,10412,106
1473817411908,10424,106
1473817411928,10422,106
1473817411948,10402,106
1473817411968,10386,106
1473817411988,10399,106
1473817412008,10427,105
1473817412028,10463,105
1473817412048,10458,105
1473817412068,10413,105
1473817412088,10349,105
1473817412108,10270,105
1473817412128,10214,105
1473817412148,10171,105
1473817412168,10146,105
1473817412188,10128,105
1473817412208,10101,105
1473817412228,10055,105
1473817412248,10048,105
1473817412268,10055,105
1473817412288,10053,105
1473817412308,10052,105
1473817412328,10024,105
1473817412348,9986,105
1473817412368,9986,105
1473817412388,10005,105
1473817412408,10029,105
1473817412428,10043,105
1473817412448,10032,105
1473817412468,10014,105
1473817412488,9976,105
1473817412508,9952,105
1473817412528,9940,105
1473817412548,9945,105
1473817412568,9969,105
1473817412588,9942,105
1473817412608,9912,105
1473817412628,9869,105
1473817412648,9807,105
1473817412668,9766,105
1473817412688,9724,105
1473817412708,9682,105
1473817412728,9664,105
1473817412748,9639,105
1473817412768,9632,105
1473817412788,9632,105
1473817412808,9630,105
1473817412828,9642,105
1473817412848,9639,105
1473817412868,9629,105
1473817412888,9604,105
1473817412908,9599,105
1473817412928,9626,105
1473817412948,9652,105
1473817412968,9681,105
1473817412988,9692,105
1473817413008,9674,105
1473817413028,9651,105
1473817413048,9633,105
1473817413068,9648,105
1473817413088,9680,105
1473817413108,9708,105
1473817413128,9701,105
1473817413148,9678,105
1473817413168,9640,105
1473817413188,9604,105
1473817413208,9556,105
1473817413228,9523,105
1473817413248,9499,105
1473817413268,9476,105
1473817413288,9467,105
1473817413308,9457,105
1473817413328,9465,105
1473817413348,9480,105
1473817413368,9477,105
1473817413388,9494,105
1473817413408,9478,105
1473817413428,9460,105
1473817413448,9464,105
1473817413468,9480,105
1473817413488,9520,105
1473817413508,9533,105
1473817413528,9509,105
1473817413548,9525,105
1473817413568,9514,105
1473817413588,9496,105
1473817413608,9507,105
1473817413628,9536,105
1473817413648,9574,105
1473817413668,9555,105
1473817413688,9554,105
1473817413708,9539,105
1473817413728,9488,105
1473817413748,9458,105
1473817413768,9422,105
1473817413788,9394,105
1473817413808,9378,105
1473817413828,9357,105
1473817413848,9364,105
1473817413868,9369,105
1473817413888,9391,105
1473817413908,9407,105
1473817413928,9412,105
1473817413948,9407,105
1473817413968,9396,105
1473817413988,9418,105
1473817414008,9468,106
1473817414028,9502,106
1473817414048,9524,106
1473817414068,9548,106
1473817414088,9552,106
1473817414108,9560,106
1473817414128,9558,106
1473817414148,9580,106
1473817414168,9626,106
1473817414188,9663,106
1473817414208,9662,106
1473817414228,9621,106
1473817414248,9576,106
1473817414268,9538,106
1473817414288,9513,106
1473817414308,9490,106
1473817414328,9473,106
1473817414348,9468,106
1473817414368,9480,106
1473817414388,9483,106
1473817414408,9503,106
1473817414428,9528,106
1473817414448,9539,106
1473817414468,9560,106
1473817414488,9560,106
1473817414508,9600,106
1473817414528,9631,106
1473817414548,9671,106
1473817414568,9709,106
1473817414588,9728,106
1473817414608,9759,106
1473817414628,9763,106
1473817414648,9763,106
1473817414668,9788,106
1473817414688,9812,106
1473817414708,9860,106
1473817414728,9928,106
1473817414748,9937,106
1473817414768,9905,106
1473817414788,9861,106
1473817414808,9832,106
1473817414828,9821,106
1473817414848,9805,106
1473817414868,9807,106
1473817414888,9807,106
1473817414908,9816,106
1473817414928,9856,106
1473817414948,9880,106
1473817414968,9905,106
1473817414988,9939,106
1473817415008,9978,107
1473817415028,10026,107
1473817415048,10078,107
1473817415068,10130,107
1473817415088,10168,107
1473817415108,10220,107
1473817415128,10288,107
1473817415148,10328,107
1473817415168,10338,107
1473817415188,10337,107
1473817415208,10320,107
1473817415228,10330,107
1473817415248,10394,107
1473817415268,10459,107
1473817415288,10464,107
1473817415308,10416,107
1473817415328,10374,107
1473817415348,10347,107
1473817415368,10328,107
1473817415388,10325,107
1473817415408,10328,107
1473817415428,10356,107
1473817415448,10362,107
1473817415468,10376,107
1473817415488,10385,107
1473817415508,10388,107
1473817415528,10406,107
1473817415548,10417,107
1473817415568,10413,107
1473817415588,10402,107
1473817415608,10389,107
1473817415628,10398,107
1473817415648,10419,107
1473817415668,10422,107
1473817415688,10412,107
1473817415708,10379,107
1473817415728,10328,107
1473817415748,10314,107
1473817415768,10315,107
1473817415788,10363,107
1473817415808,10367,107
1473817415828,10335,107
1473817415848,10288,107
1473817415868,10208,107
1473817415888,10149,107
1473817415908,10114,107
1473817415928,10050,107
1473817415948,10029,107
1473817415968,9998,107
1473817415988,9966,107
1473817416008,9943,108
1473817416028,9932,108
1473817416048,9938,108
1473817416068,9927,108
1473817416088,9907,108
1473817416108,9878,108
1473817416128,9850,108
1473817416148,9850,108
1473817416168,9874,108
1473817416188,9893,108
1473817416208,9892,108
1473817416228,9870,108
1473817416248,9856,108
1473817416268,9844,108
1473817416288,9844,108
1473817416308,9870,108
1473817416328,9900,108
1473817416348,9902,108
1473817416368,9893,108
1473817416388,9863,108
1473817416408,9811,108
1473817416428,9749,108
1473817416448,9718,108
1473817416468,9685,108
1473817416488,9651,108
1473817416508,9645,108
1473817416528,9619,108
1473817416548,9628,108
1473817416568,9642,108
1473817416588,9641,108
1473817416608,9638,108
1473817416628,9624,108
1473817416648,9594,108
1473817416668,9582,108
1473817416688,9593,108
1473817416708,9624,108
1473817416728,9639,108
1473817416748,9647,108
1473817416768,9638,108
1473817416788,9608,108
1473817416808,9583,108
1473817416828,9576,108
1473817416848,9592,108
1473817416868,9645,108
1473817416888,9648,108
1473817416908,9638,108
1473817416928,9612,108
1473817416948,9560,108
1473817416968,9529,108
1473817416988,9502,108
1473817417008,9478,109
1473817417028,9451,109
1473817417048,9429,109
1473817417068,9422,109
1473817417088,9413,109
1473817417108,9402,109
1473817417128,9405,109
1473817417148,9402,109
1473817417168,9432,109
1473817417188,9396,109
1473817417208,9406,109
1473817417228,9422,109
1473817417248,9479,109
1473817417268,9511,109
1473817417288,9524,109
1473817417308,9526,109
1473817417328,9509,109
1473817417348,9481,109
1473817417368,9475,109
1473817417388,9496,109
1473817417408,9530,109
1473817417428,9546,109
1473817417448,9538,109
1473817417468,9522,109
1473817417488,9508,109
1473817417508,9464,109
1473817417528,9427,109
1473817417548,9406,109
1473817417568,9377,109
1473817417588,9370,109
1473817417608,9357,109
1473817417628,9360,109
1473817417648,9370,109
1473817417668,9384,109
1473817417688,9405,109
1473817417708,9404,109
1473817417728,9392,109
1473817417748,9392,109
1473817417768,9412,109
1473817417788,9472,109
1473817417808,9509,109
1473817417828,9523,109
1473817417848,9525,109
1473817417868,9528,109
1473817417888,9532,109
1473817417908,9544,109
1473817417928,9578,109
1473817417948,9632,109
1473817417968,9665,109
1473817417988,9680,109
1473817418008,9658,109
1473817418028,9614,109
1473817418048,9602,109
1473817418068,9581,109
1473817418088,9567,109
1473817418108,9557,109
1473817418128,9560,109
1473817418148,9573,109
1473817418168,9588,109
1473817418188,9616,109
1473817418208,9644,109
1473817418228,9659,109
1473817418248,9674,109
1473817418268,9679,109
1473817418288,9696,109
1473817418308,9752,109
1473817418328,9799,109
1473817418348,9831,109
1473817418368,9850,109
1473817418388,9864,109
1473817418408,9874,109
1473817418428,9877,109
1473817418448,9895,109
1473817418468,9929,109
1473817418488,9982,109
1473817418508,10032,109
1473817418528,10024,109
1473817418548,9986,109
1473817418568,9967,109
1473817418588,9937,109
1473817418608,9925,109
1473817418628,9913,109
1473817418648,9917,109
1473817418668,9936,109
1473817418688,9947,109
1473817418708,9976,109
1473817418728,9998,109
1473817418748,10019,109
1473817418768,10024,109
1473817418788,10011,109
1473817418808,10025,109
1473817418828,10027,109
1473817418848,10056,109
1473817418868,10104,109
1473817418888,10125,109
1473817418908,10153,109
1473817418928,10165,109
1473817418948,10146,109
1473817418968,10127,109
1473817418988,10126,109
1473817419008,10153,107
1473817419028,10211,107
1473817419048,10234,107
1473817419068,10202,107
1473817419088,10150,107
1473817419108,10097,107
1473817419128,10080,107
1473817419148,10040,107
1473817419168,10007,107
1473817419188,9978,107
1473817419208,9968,107
1473817419228,9956,107
1473817419248,9952,107
1473817419268,9972,107
1473817419288,9970,107
1473817419308,9965,107
1473817419328,9954,107
1473817419348,9940,107
1473817419368,9932,107
1473817419388,9952,107
1473817419408,9982,107
1473817419428,10012,107
1473817419448,10022,107
1473817419468,10015,107
1473817419488,10006,107
1473817419508,9968,107
1473817419528,9970,107
1473817419548,9998,107
1473817419568,10037,107
1473817419588,10048,107
1473817419608,10008,107
1473817419628,9973,107
1473817419648,9924,107
1473817419668,9882,107
1473817419688,9860,107
1473817419708,9823,107
1473817419728,9801,107
1473817419748,9784,107
1473817419768,9770,107
1473817419788,9764,107
1473817419808,9761,107
1473817419828,9776,107
1473817419848,9788,107
1473817419868,9768,107
1473817419888,9748,107
1473817419908,9715,107
1473817419928,9735,107
1473817419948,9775,107
1473817419968,9799,107
1473817419988,9814,107
1473817420008,9805,107
1473817420028,9784,107
1473817420048,9760,107
1473817420068,9744,107
1473817420088,9763,107
1473817420108,9803,107
1473817420128,9824,107
1473817420148,9808,107
1473817420168,9783,107
1473817420188,9748,107
1473817420208,9705,107
1473817420228,9662,107
1473817420248,9640,107
1473817420268,9620,107
1473817420288,9606,107
1473817420308,9587,107
1473817420328,9570,107
1473817420348,9584,107
1473817420368,9591,107
1473817420388,9594,107
1473817420408,9582,107
1473817420428,9549,107
1473817420448,9551,107
1473817420468,9568,107
1473817420488,9597,107
1473817420508,9633,107
1473817420528,9629,107
1473817420548,9628,107
1473817420568,9602,107
1473817420588,9560,107
1473817420608,9524,107
1473817420628,9539,107
1473817420648,9587,107
1473817420668,9609,107
1473817420688,9590,107
1473817420708,9579,107
1473817420728,9552,107
1473817420748,9503,107
1473817420768,9471,107
1473817420788,9442,107
1473817420808,9414,107
1473817420828,9386,107
1473817420848,9358,107
1473817420868,9340,107
1473817420888,9347,107
1473817420908,9366,107
1473817420928,9364,107
1473817420948,9364,107
1473817420968,9365,107
1473817420988,9359,107
1473817421008,9386,105
1473817421028,9427,105
1473817421048,9468,105
1473817421068,9496,105
1473817421088,9508,105
1473817421108,9510,105
1473817421128,9493,105
1473817421148,9481,105
1473817421168,9504,105
1473817421188,9555,105
1473817421208,9605,105
1473817421228,9614,105
1473817421248,9576,105
1473817421268,9559,105
1473817421288,9531,105
1473817421308,9510,105
1473817421328,9498,105
1473817421348,9479,105
1473817421368,9480,105
1473817421388,9484,105
1473817421408,9490,105
1473817421428,9507,105
1473817421448,9516,105
1473817421468,9541,105
1473817421488,9552,105
1473817421508,9553,105
1473817421528,9567,105
1473817421548,9600,105
1473817421568,9635,105
1473817421588,9683,105
1473817421608,9706,105
1473817421628,9728,105
1473817421648,9732,105
1473817421668,9725,105
1473817421688,9731,105
1473817421708,9754,105
1473817421728,9808,105
1473817421748,9869,105
1473817421768,9868,105
1473817421788,9842,105
1473817421808,9801,105
1473817421828,9774,105
1473817421848,9742,105
1473817421868,9711,105
1473817421888,9704,105
1473817421908,9708,105
1473817421928,9714,105
1473817421948,9727,105
1473817421968,9735,105
1473817421988,9765,105
1473817422008,9778,104
1473817422028,9808,104
1473817422048,9824,104
1473817422068,9825,104
1473817422088,9845,104
1473817422108,9916,104
1473817422128,9970,104
1473817422148,10007,104
1473817422168,10035,104
1473817422188,10053,104
1473817422208,10076,104
1473817422228,10083,104
1473817422248,10124,104
1473817422268,10161,104
1473817422288,10244,104
1473817422308,10280,104
1473817422328,10249,104
1473817422348,10225,104
1473817422368,10207,104
1473817422388,10188,104
1473817422408,10179,104
1473817422428,10168,104
1473817422448,10177,104
1473817422468,10187,104
1473817422488,10195,104
1473817422508,10204,104
1473817422528,10223,104
1473817422548,10246,104
1473817422568,10263,104
1473817422588,10276,104
1473817422608,10296,104
1473817422628,10313,104
1473817422648,10346,104
1473817422668,10377,104
1473817422688,10408,104
1473817422708,10434,104
1473817422728,10430,104
1473817422748,10414,104
1473817422768,10396,104
1473817422788,10390,104
1473817422808,10424,104
1473817422828,10466,104
1473817422848,10469,104
1473817422868,10430,104
1473817422888,10369,104
1473817422908,10320,104
1473817422928,10267,104
1473817422948,10224,104
1473817422968,10190,104
1473817422988,10162,104
1473817423008,10145,104
1473817423028,10133,104
1473817423048,10118,104
1473817423068,10115,104
1473817423088,10110,104
1473817423108,10100,104
1473817423128,10088,104
1473817423148,10047,104
1473817423168,10017,104
1473817423188,10024,104
1473817423208,10048,104
1473817423228,10084,104
1473817423248,10074,104
1473817423268,10030,104
1473817423288,9996,104
1473817423308,9954,104
1473817423328,9954,104
1473817423348,9981,104
1473817423368,10027,104
1473817423388,10006,104
1473817423408,9979,104
1473817423428,9935,104
1473817423448,9880,104
1473817423468,9839,104
1473817423488,9802,104
1473817423508,9770,104
1473817423528,9748,104
1473817423548,9723,104
1473817423568,9702,104
1473817423588,9686,104
1473817423608,9684,104
1473817423628,9696,104
1473817423648,9697,104
1473817423668,9682,104
1473817423688,9663,104
1473817423708,9642,104
1473817423728,9673,104
1473817423748,9698,104
1473817423768,9722,104
1473817423788,9728,104
1473817423808,9708,104
1473817423828,9692,104
1473817423848,9673,104
1473817423868,9672,104
1473817423888,9701,104
1473817423908,9735,104
1473817423928,9739,104
1473817423948,9724,104
1473817423968,9703,104
1473817423988,9668,104
1473817424008,9624,104
1473817424028,9598,104
1473817424048,9586,104
1473817424068,9564,104
1473817424088,9558,104
1473817424108,9542,104
1473817424128,9544,104
1473817424148,9559,104
1473817424168,9565,104
1473817424188,9586,104
1473817424208,9570,104
1473817424228,9557,104
1473817424248,9558,104
1473817424268,9581,104
1473817424288,9613,104
1473817424308,9630,104
1473817424328,9654,104
1473817424348,9658,104
1473817424368,9640,104
1473817424388,9614,104
1473817424408,9592,104
1473817424428,9598,104
1473817424448,9626,104
1473817424468,9638,104
1473817424488,9627,104
1473817424508,9594,104
1473817424528,9546,104
1473817424548,9506,104
1473817424568,9478,104
1473817424588,9466,104
1473817424608,9448,104
1473817424628,9432,104
1473817424648,9442,104
1473817424668,9448,104
1473817424688,9480,104
1473817424708,9499,104
1473817424728,9506,104
1473817424748,9526,104
1473817424768,9542,104
1473817424788,9566,104
1473817424808,9596,104
1473817424828,9635,104
1473817424848,9670,104
1473817424868,9684,104
1473817424888,9692,104
1473817424908,9712,104
1473817424928,9699,104
1473817424948,9680,104
1473817424968,9690,104
1473817424988,9742,104
1473817425008,9809,104
1473817425028,9800,104
1473817425048,9751,104
1473817425068,9731,104
1473817425088,9720,104
1473817425108,9698,104
1473817425128,9648,104
1473817425148,9608,104
1473817425168,9600,104
1473817425188,9587,104
1473817425208,9570,104
1473817425228,9566,104
1473817425248,9563,104
1473817425268,9567,104
1473817425288,9534,104
1473817425308,9481,104
1473817425328,9444,104
1473817425348,9455,104
1473817425368,9504,104
1473817425388,9530,104
1473817425408,9548,104
1473817425428,9576,104
1473817425448,9597,104
1473817425468,9628,104
1473817425488,9626,104
1473817425508,9639,104
1473817425528,9680,104
1473817425548,9762,104
1473817425568,9795,104
1473817425588,9765,104
1473817425608,9758,104
1473817425628,9761,104
1473817425648,9734,104
1473817425668,9708,104
1473817425688,9704,104
1473817425708,9746,104
1473817425728,9758,104
1473817425748,9733,104
1473817425768,9740,104
1473817425788,9777,104
1473817425808,9818,104
1473817425828,9828,104
1473817425848,9830,104
1473817425868,9855,104
1473817425888,9892,104
1473817425908,9928,104
1473817425928,9991,104
1473817425948,10019,104
1473817425968,10076,104
1473817425988,10136,104
1473817426008,10183,104
1473817426028,10224,104
1473817426048,10289,104
1473817426068,10362,104
1473817426088,10431,104
1473817426108,10450,104
1473817426128,10443,104
1473817426148,10409,104
1473817426168,10364,104
1473817426188,10331,104
1473817426208,10280,104
1473817426228,10236,104
1473817426248,10217,104
1473817426268,10208,104
1473817426288,10200,104
1473817426308,10176,104
1473817426328,10175,104
1473817426348,10201,104
1473817426368,10198,104
1473817426388,10176,104
1473817426408,10138,104
1473817426428,10120,104
1473817426448,10125,104
1473817426468,10123,104
1473817426488,10139,104
1473817426508,10112,104
1473817426528,10074,104
1473817426548,10032,104
1473817426568,10001,104
1473817426588,9996,104
1473817426608,10022,104
1473817426628,10013,104
1473817426648,9966,104
1473817426668,9908,104
1473817426688,9856,104
1473817426708,9802,104
1473817426728,9760,104
1473817426748,9710,104
1473817426768,9681,104
1473817426788,9668,104
1473817426808,9663,104
1473817426828,9640,104
1473817426848,9615,104
1473817426868,9617,104
1473817426888,9628,104
1473817426908,9626,104
1473817426928,9606,104
1473817426948,9586,104
1473817426968,9628,104
1473817426988,9662,104
1473817427008,9680,106
1473817427028,9687,106
1473817427048,9688,106
1473817427068,9684,106
1473817427088,9652,106
1473817427108,9644,106
1473817427128,9709,106
1473817427148,9745,106
1473817427168,9716,106
1473817427188,9690,106
1473817427208,9714,106
1473817427228,9698,106
1473817427248,9656,106
1473817427268,9640,106
1473817427288,9594,106
1473817427308,9586,106
1473817427328,9598,106
1473817427348,9596,106
1473817427368,9584,106
1473817427388,9566,106
1473817427408,9594,106
1473817427428,9631,106
1473817427448,9653,106
1473817427468,9629,106
1473817427488,9595,106
1473817427508,9625,106
1473817427528,9697,106
1473817427548,9736,106
1473817427568,9764,106
1473817427588,9756,106
1473817427608,9744,106
1473817427628,9750,106
1473817427648,9784,106
1473817427668,9828,106
1473817427688,9848,106
1473817427708,9845,106
1473817427728,9845,106
1473817427748,9802,106
1473817427768,9742,106
1473817427788,9712,106
1473817427808,9686,106
1473817427828,9696,106
1473817427848,9699,106
1473817427868,9672,106
1473817427888,9652,106
1473817427908,9643,106
1473817427928,9667,106
1473817427948,9682,106
1473817427968,9662,106
1473817427988,9651,106
1473817428008,9648,106
1473817428028,9671,106
1473817428048,9706,106
1473817428068,9730,106
1473817428088,9739,106
1473817428108,9724,106
1473817428128,9703,106
1473817428148,9672,106
1473817428168,9668,106
1473817428188,9699,106
1473817428208,9730,106
1473817428228,9713,106
1473817428248,9656,106
1473817428268,9583,106
1473817428288,9529,106
1473817428308,9500,106
1473817428328,9483,106
1473817428348,9466,106
1473817428368,9466,106
1473817428388,9478,106
1473817428408,9444,106
1473817428428,9442,106
1473817428448,9440,106
1473817428468,9467,106
1473817428488,9489,106
1473817428508,9469,106
1473817428528,9448,106
1473817428548,9492,106
1473817428568,9530,106
1473817428588,9542,106
1473817428608,9522,106
1473817428628,9522,106
1473817428648,9530,106
1473817428668,9542,106
1473817428688,9604,106
1473817428708,9652,106
1473817428728,9731,106
1473817428748,9753,106
1473817428768,9747,106
1473817428788,9720,106
1473817428808,9706,106
1473817428828,9711,106
1473817428848,9728,106
1473817428868,9740,106
1473817428888,9741,106
1473817428908,9727,106
1473817428928,9725,106
1473817428948,9761,106
1473817428968,9800,106
1473817428988,9816,106
1473817429008,9818,107
1473817429028,9795,107
1473817429048,9806,107
1473817429068,9812,107
1473817429088,9841,107
1473817429108,9862,107
1473817429128,9878,107
1473817429148,9892,107
1473817429168,9883,107
1473817429188,9849,107
1473817429208,9848,107
1473817429228,9887,107
1473817429248,9944,107
1473817429268,9939,107
1473817429288,9910,107
1473817429308,9898,107
1473817429328,9852,107
1473817429348,9820,107
1473817429368,9800,107
1473817429388,9781,107
1473817429408,9775,107
1473817429428,9761,107
1473817429448,9749,107
1473817429468,9736,107
1473817429488,9723,107
1473817429508,9724,107
1473817429528,9722,107
1473817429548,9710,107
1473817429568,9706,107
1473817429588,9692,107
1473817429608,9715,107
1473817429628,9730,107
1473817429648,9739,107
1473817429668,9743,107
1473817429688,9728,107
1473817429708,9700,107
1473817429728,9697,107
1473817429748,9682,107
1473817429768,9736,107
1473817429788,9760,107
1473817429808,9720,107
1473817429828,9687,107
1473817429848,9642,107
1473817429868,9571,107
1473817429888,9563,107
1473817429908,9551,107
1473817429928,9518,107
1473817429948,9496,107
1473817429968,9471,107
1473817429988,9467,107
1473817430008,9467,107
1473817430028,9494,107
1473817430048,9487,107
1473817430068,9484,107
1473817430088,9467,107
1473817430108,9472,107
1473817430128,9526,107
1473817430148,9570,107
1473817430168,9598,107
1473817430188,9605,107
1473817430208,9586,107
1473817430228,9564,107
1473817430248,9575,107
1473817430268,9601,107
1473817430288,9658,107
1473817430308,9680,107
1473817430328,9672,107
1473817430348,9651,107
1473817430368,9611,107
1473817430388,9585,107
1473817430408,9563,107
1473817430428,9552,107
1473817430448,9542,107
1473817430468,9532,107
